"Sample Set Id"	1752
"Sample Set Name"	"sad100124HPA"
"System Name"	"System III"
"Instrument Method Name"	"System 3_RI"
"SampleName"	"PMMA88.5kDa"
"Injection"	1
"Vial"	"7"
"Channel"	"410 "
0.01666667	-0.004680851
0.03333333	0
0.05	0
0.06666667	0
0.08333333	0
0.1	0
0.1166667	0
0.1333333	0
0.15	0
0.1666667	0
0.1833333	0
0.2	0
0.2166667	0
0.2333333	0
0.25	0.004680851
0.2666667	0.004680851
0.2833333	0.004680851
0.3	0.004680851
0.3166667	0.004680851
0.3333333	0.004680851
0.35	0.004680851
0.3666667	0.004680851
0.3833333	0.009361702
0.4	0.009361702
0.4166667	0.009361702
0.4333333	0.009361702
0.45	0.009361702
0.4666667	0.009361702
0.4833333	0.009361702
0.5	0.009361702
0.5166667	0.009361702
0.5333333	0.01404255
0.55	0.01404255
0.5666667	0.01404255
0.5833333	0.01404255
0.6	0.01404255
0.6166667	0.01404255
0.6333333	0.01404255
0.65	0.01404255
0.6666667	0.01404255
0.6833333	0.01404255
0.7	0.01404255
0.7166667	0.01404255
0.7333333	0.01404255
0.75	0.01404255
0.7666667	0.01404255
0.7833333	0.01404255
0.8	0.01404255
0.8166667	0.01404255
0.8333333	0.01404255
0.85	0.01404255
0.8666667	0.01404255
0.8833333	0.01404255
0.9	0.01404255
0.9166667	0.0187234
0.9333333	0.0187234
0.95	0.0187234
0.9666667	0.0187234
0.9833333	0.0187234
1	0.01404255
1.016667	0.0187234
1.033333	0.0187234
1.05	0.0187234
1.066667	0.0187234
1.083333	0.0187234
1.1	0.0187234
1.116667	0.0187234
1.133333	0.0187234
1.15	0.0187234
1.166667	0.0187234
1.183333	0.0187234
1.2	0.0187234
1.216667	0.0187234
1.233333	0.0187234
1.25	0.0187234
1.266667	0.0187234
1.283333	0.0187234
1.3	0.0187234
1.316667	0.0187234
1.333333	0.0187234
1.35	0.0187234
1.366667	0.0187234
1.383333	0.0187234
1.4	0.0187234
1.416667	0.0187234
1.433333	0.0187234
1.45	0.0187234
1.466667	0.0187234
1.483333	0.0187234
1.5	0.0187234
1.516667	0.0187234
1.533333	0.0187234
1.55	0.0187234
1.566667	0.0187234
1.583333	0.0187234
1.6	0.0187234
1.616667	0.0187234
1.633333	0.0187234
1.65	0.0187234
1.666667	0.0187234
1.683333	0.0187234
1.7	0.0187234
1.716667	0.0187234
1.733333	0.0187234
1.75	0.0187234
1.766667	0.0187234
1.783333	0.0187234
1.8	0.0187234
1.816667	0.0187234
1.833333	0.0187234
1.85	0.0187234
1.866667	0.0187234
1.883333	0.0187234
1.9	0.0187234
1.916667	0.0187234
1.933333	0.0187234
1.95	0.0187234
1.966667	0.0187234
1.983333	0.01404255
2	0.01404255
2.016667	0.01404255
2.033333	0.01404255
2.05	0.01404255
2.066667	0.01404255
2.083333	0.01404255
2.1	0.01404255
2.116667	0.01404255
2.133333	0.0187234
2.15	0.0187234
2.166667	0.01404255
2.183333	0.01404255
2.2	0.01404255
2.216667	0.01404255
2.233333	0.01404255
2.25	0.01404255
2.266667	0.01404255
2.283333	0.01404255
2.3	0.01404255
2.316667	0.01404255
2.333333	0.01404255
2.35	0.01404255
2.366667	0.01404255
2.383333	0.01404255
2.4	0.01404255
2.416667	0.01404255
2.433333	0.01404255
2.45	0.01404255
2.466667	0.01404255
2.483333	0.01404255
2.5	0.01404255
2.516667	0.01404255
2.533333	0.01404255
2.55	0.01404255
2.566667	0.01404255
2.583333	0.01404255
2.6	0.01404255
2.616667	0.01404255
2.633333	0.01404255
2.65	0.01404255
2.666667	0.01404255
2.683333	0.01404255
2.7	0.01404255
2.716667	0.01404255
2.733333	0.01404255
2.75	0.01404255
2.766667	0.01404255
2.783333	0.009361702
2.8	0.009361702
2.816667	0.009361702
2.833333	0.009361702
2.85	0.009361702
2.866667	0.009361702
2.883333	0.009361702
2.9	0.009361702
2.916667	0.009361702
2.933333	0.009361702
2.95	0.01404255
2.966667	0.009361702
2.983333	0.009361702
3	0.009361702
3.016667	0.009361702
3.033333	0.009361702
3.05	0.009361702
3.066667	0.009361702
3.083333	0.009361702
3.1	0.009361702
3.116667	0.009361702
3.133333	0.009361702
3.15	0.009361702
3.166667	0.009361702
3.183333	0.009361702
3.2	0.009361702
3.216667	0.009361702
3.233333	0.009361702
3.25	0.009361702
3.266667	0.009361702
3.283333	0.009361702
3.3	0.009361702
3.316667	0.009361702
3.333333	0.009361702
3.35	0.009361702
3.366667	0.009361702
3.383333	0.009361702
3.4	0.009361702
3.416667	0.009361702
3.433333	0.009361702
3.45	0.009361702
3.466667	0.009361702
3.483333	0.009361702
3.5	0.009361702
3.516667	0.009361702
3.533333	0.009361702
3.55	0.009361702
3.566667	0.009361702
3.583333	0.009361702
3.6	0.009361702
3.616667	0.009361702
3.633333	0.009361702
3.65	0.009361702
3.666667	0.009361702
3.683333	0.009361702
3.7	0.009361702
3.716667	0.009361702
3.733333	0.009361702
3.75	0.009361702
3.766667	0.009361702
3.783333	0.004680851
3.8	0.004680851
3.816667	0.009361702
3.833333	0.004680851
3.85	0.009361702
3.866667	0.004680851
3.883333	0.004680851
3.9	0.004680851
3.916667	0.004680851
3.933333	0.004680851
3.95	0.009361702
3.966667	0.004680851
3.983333	0.004680851
4	0.004680851
4.016667	0.004680851
4.033333	0.004680851
4.05	0.004680851
4.066667	0.004680851
4.083333	0.004680851
4.1	0.004680851
4.116667	0.004680851
4.133333	0.004680851
4.15	0.004680851
4.166667	0.004680851
4.183333	0.004680851
4.2	0.004680851
4.216667	0.004680851
4.233333	0
4.25	0.004680851
4.266667	0.004680851
4.283333	0.004680851
4.3	0
4.316667	0.004680851
4.333333	0.004680851
4.35	0.004680851
4.366667	0.004680851
4.383333	0
4.4	0
4.416667	0
4.433333	0
4.45	0
4.466667	0
4.483333	0
4.5	0
4.516667	0
4.533333	0
4.55	0.004680851
4.566667	0
4.583333	0
4.6	0
4.616667	0
4.633333	0
4.65	0
4.666667	0
4.683333	0
4.7	0
4.716667	0
4.733333	0
4.75	0.004680851
4.766667	0
4.783333	0
4.8	0
4.816667	0
4.833333	0
4.85	0
4.866667	0
4.883333	0
4.9	0
4.916667	0
4.933333	0
4.95	0
4.966667	0
4.983333	0
5	0
5.016667	0
5.033333	0
5.05	0
5.066667	0
5.083333	0
5.1	0
5.116667	0
5.133333	0
5.15	0
5.166667	0
5.183333	0
5.2	0
5.216667	0
5.233333	0
5.25	0
5.266667	0
5.283333	0
5.3	0
5.316667	0
5.333333	0
5.35	0
5.366667	0
5.383333	0
5.4	0
5.416667	0
5.433333	0
5.45	0
5.466667	0
5.483333	0
5.5	0
5.516667	0
5.533333	0
5.55	0
5.566667	0
5.583333	0
5.6	0
5.616667	0
5.633333	0
5.65	0
5.666667	0
5.683333	0
5.7	0
5.716667	0
5.733333	0
5.75	0
5.766667	0
5.783333	0
5.8	0
5.816667	0
5.833333	0
5.85	0
5.866667	0
5.883333	0
5.9	0
5.916667	0
5.933333	0
5.95	0
5.966667	0
5.983333	0
6	-0.004680851
6.016667	-0.004680851
6.033333	-0.004680851
6.05	0
6.066667	-0.004680851
6.083333	-0.004680851
6.1	-0.004680851
6.116667	-0.004680851
6.133333	-0.004680851
6.15	-0.004680851
6.166667	-0.004680851
6.183333	-0.004680851
6.2	-0.004680851
6.216667	-0.004680851
6.233333	-0.004680851
6.25	-0.004680851
6.266667	-0.004680851
6.283333	-0.009361702
6.3	-0.009361702
6.316667	-0.009361702
6.333333	-0.009361702
6.35	-0.004680851
6.366667	-0.009361702
6.383333	-0.009361702
6.4	-0.009361702
6.416667	-0.009361702
6.433333	-0.009361702
6.45	-0.009361702
6.466667	-0.009361702
6.483333	-0.004680851
6.5	-0.004680851
6.516667	-0.004680851
6.533333	-0.004680851
6.55	-0.004680851
6.566667	-0.004680851
6.583333	-0.004680851
6.6	0
6.616667	0
6.633333	0.004680851
6.65	0.01404255
6.666667	0.02340426
6.683333	0.04212766
6.7	0.06553191
6.716667	0.09829787
6.733333	0.1451064
6.75	0.2106383
6.766667	0.2855319
6.783333	0.3885106
6.8	0.5148936
6.816667	0.6787234
6.833333	0.8706383
6.85	1.1
6.866667	1.366808
6.883333	1.671064
6.9	2.017447
6.916667	2.387234
6.933333	2.785106
6.95	3.201702
6.966667	3.608936
6.983333	4.01617
7	4.409362
7.016667	4.774468
7.033333	5.102128
7.05	5.382979
7.066667	5.617021
7.083333	5.799574
7.1	5.930638
7.116667	6.014894
7.133333	6.057021
7.15	6.05234
7.166667	6.010213
7.183333	5.94
7.2	5.841702
7.216667	5.72
7.233333	5.579574
7.25	5.420425
7.266667	5.261277
7.283333	5.088085
7.3	4.910213
7.316667	4.73234
7.333333	4.554468
7.35	4.376596
7.366667	4.203404
7.383333	4.025532
7.4	3.85234
7.416667	3.68383
7.433333	3.52
7.45	3.360851
7.466667	3.201702
7.483333	3.051915
7.5	2.897447
7.516667	2.75234
7.533333	2.607234
7.55	2.471489
7.566667	2.335745
7.583333	2.204681
7.6	2.078298
7.616667	1.956596
7.633333	1.839574
7.65	1.727234
7.666667	1.624255
7.683333	1.530638
7.7	1.437021
7.716667	1.352766
7.733333	1.273191
7.75	1.202979
7.766667	1.137447
7.783333	1.076596
7.8	1.020426
7.816667	0.973617
7.833333	0.9314894
7.85	0.8893617
7.866667	0.8565957
7.883333	0.8238298
7.9	0.7957447
7.916667	0.7723404
7.933333	0.7489362
7.95	0.7255319
7.966667	0.7068085
7.983333	0.6880851
8	0.6740425
8.016667	0.66
8.033333	0.6459574
8.05	0.6365957
8.066667	0.6225532
8.083333	0.6131915
8.1	0.5991489
8.116667	0.5897872
8.133333	0.5804255
8.15	0.5710638
8.166667	0.5570213
8.183333	0.5476596
8.2	0.5382979
8.216667	0.5289362
8.233333	0.5242553
8.25	0.5148936
8.266667	0.5055319
8.283333	0.5008511
8.3	0.4914894
8.316667	0.4868085
8.333333	0.4821277
8.35	0.4774468
8.366667	0.4680851
8.383333	0.4634042
8.4	0.4634042
8.416667	0.4587234
8.433333	0.4587234
8.45	0.4587234
8.466667	0.4587234
8.483333	0.4587234
8.5	0.4634042
8.516667	0.4680851
8.533333	0.472766
8.55	0.4821277
8.566667	0.4868085
8.583333	0.4914894
8.6	0.5008511
8.616667	0.5055319
8.633333	0.5148936
8.65	0.5195745
8.666667	0.5289362
8.683333	0.5289362
8.7	0.533617
8.716667	0.533617
8.733333	0.533617
8.75	0.5289362
8.766667	0.5195745
8.783333	0.5148936
8.8	0.5055319
8.816667	0.4961702
8.833333	0.4868085
8.85	0.472766
8.866667	0.4587234
8.883333	0.4446808
8.9	0.4259574
8.916667	0.4119149
8.933333	0.3931915
8.95	0.3791489
8.966667	0.3604255
8.983333	0.346383
9	0.3276596
9.016667	0.313617
9.033333	0.2995745
9.05	0.2855319
9.066667	0.2714894
9.083333	0.2574468
9.1	0.2480851
9.116667	0.2340426
9.133333	0.22
9.15	0.2106383
9.166667	0.2012766
9.183333	0.187234
9.2	0.1778723
9.216667	0.1685106
9.233333	0.1591489
9.25	0.1544681
9.266667	0.1451064
9.283333	0.1357447
9.3	0.1310638
9.316667	0.1217021
9.333333	0.1170213
9.35	0.1123404
9.366667	0.1029787
9.383333	0.09829787
9.4	0.09361702
9.416667	0.08425532
9.433333	0.08425532
9.45	0.07957447
9.466667	0.07021277
9.483333	0.07021277
9.5	0.06553191
9.516667	0.06085106
9.533333	0.05617021
9.55	0.05148936
9.566667	0.04680851
9.583333	0.04212766
9.6	0.03744681
9.616667	0.02808511
9.633333	0.01404255
9.65	-0.009361702
9.666667	-0.04212766
9.683333	-0.09829787
9.7	-0.1731915
9.716667	-0.2761702
9.733333	-0.4119149
9.75	-0.5804255
9.766667	-0.786383
9.783333	-1.020426
9.8	-1.273191
9.816667	-1.549362
9.833333	-1.830213
9.85	-2.111064
9.866667	-2.391915
9.883333	-2.658723
9.9	-2.91617
9.916667	-3.178298
9.933333	-3.454468
9.95	-3.763404
9.966667	-4.128511
9.983333	-4.568511
10	-5.097447
10.01667	-5.715319
10.03333	-6.398723
10.05	-7.110213
10.06667	-7.802979
10.08333	-8.41617
10.1	-8.902979
10.11667	-9.235319
10.13333	-9.394468
10.15	-9.385106
10.16667	-9.230638
10.18333	-8.954468
10.2	-8.589362
10.21667	-8.168085
10.23333	-7.704681
10.25	-7.236596
10.26667	-6.773191
10.28333	-6.32383
10.3	-5.897872
10.31667	-5.5
10.33333	-5.134894
10.35	-4.793191
10.36667	-4.488936
10.38333	-4.212766
10.4	-3.964681
10.41667	-3.744681
10.43333	-3.543404
10.45	-3.360851
10.46667	-3.197021
10.48333	-3.047234
10.5	-2.911489
10.51667	-2.785106
10.53333	-2.663404
10.55	-2.546383
10.56667	-2.434043
10.58333	-2.326383
10.6	-2.214043
10.61667	-2.106383
10.63333	-1.998723
10.65	-1.891064
10.66667	-1.788085
10.68333	-1.685106
10.7	-1.582128
10.71667	-1.48383
10.73333	-1.385532
10.75	-1.287234
10.76667	-1.193617
10.78333	-1.104681
10.8	-1.020426
10.81667	-0.9361702
10.83333	-0.8565957
10.85	-0.786383
10.86667	-0.7208511
10.88333	-0.6646808
10.9	-0.6131915
10.91667	-0.5710638
10.93333	-0.5382979
10.95	-0.5102128
10.96667	-0.4868085
10.98333	-0.472766
11	-0.4587234
11.01667	-0.4493617
11.03333	-0.4446808
11.05	-0.44
11.06667	-0.4353191
11.08333	-0.44
11.1	-0.44
11.11667	-0.44
11.13333	-0.4446808
11.15	-0.4493617
11.16667	-0.4540425
11.18333	-0.4587234
11.2	-0.4634042
11.21667	-0.4634042
11.23333	-0.4680851
11.25	-0.4680851
11.26667	-0.472766
11.28333	-0.472766
11.3	-0.472766
11.31667	-0.472766
11.33333	-0.4680851
11.35	-0.4680851
11.36667	-0.4634042
11.38333	-0.4634042
11.4	-0.4587234
11.41667	-0.4540425
11.43333	-0.4493617
11.45	-0.4446808
11.46667	-0.44
11.48333	-0.4353191
11.5	-0.4306383
11.51667	-0.4259574
11.53333	-0.4259574
11.55	-0.4212766
11.56667	-0.4259574
11.58333	-0.4306383
11.6	-0.4353191
11.61667	-0.4493617
11.63333	-0.4680851
11.65	-0.4914894
11.66667	-0.5242553
11.68333	-0.566383
11.7	-0.6178723
11.71667	-0.6740425
11.73333	-0.7348936
11.75	-0.8051064
11.76667	-0.8753191
11.78333	-0.9455319
11.8	-1.015745
11.81667	-1.076596
11.83333	-1.132766
11.85	-1.179574
11.86667	-1.217021
11.88333	-1.245106
11.9	-1.26383
11.91667	-1.273191
11.93333	-1.273191
11.95	-1.26383
11.96667	-1.249787
11.98333	-1.231064
12	-1.20766
12.01667	-1.184255
12.03333	-1.160851
12.05	-1.137447
12.06667	-1.114043
12.08333	-1.090638
12.1	-1.071915
12.11667	-1.053191
12.13333	-1.039149
12.15	-1.029787
12.16667	-1.025106
12.18333	-1.025106
12.2	-1.025106
12.21667	-1.034468
12.23333	-1.039149
12.25	-1.048511
12.26667	-1.057872
12.28333	-1.071915
12.3	-1.081277
12.31667	-1.085957
12.33333	-1.090638
12.35	-1.090638
12.36667	-1.090638
12.38333	-1.085957
12.4	-1.071915
12.41667	-1.057872
12.43333	-1.039149
12.45	-1.015745
12.46667	-0.9923404
12.48333	-0.9642553
12.5	-0.9361702
12.51667	-0.9034042
12.53333	-0.8706383
12.55	-0.8378723
12.56667	-0.8051064
12.58333	-0.7723404
12.6	-0.7395745
12.61667	-0.7068085
12.63333	-0.6693617
12.65	-0.6412766
12.66667	-0.6085106
12.68333	-0.5804255
12.7	-0.5523404
12.71667	-0.5242553
12.73333	-0.4961702
12.75	-0.472766
12.76667	-0.4493617
12.78333	-0.4306383
12.8	-0.407234
12.81667	-0.3885106
12.83333	-0.3697872
12.85	-0.3557447
12.86667	-0.3370213
12.88333	-0.3229787
12.9	-0.3089362
12.91667	-0.2948936
12.93333	-0.2855319
12.95	-0.2714894
12.96667	-0.2621277
12.98333	-0.252766
13	-0.2434043
13.01667	-0.2340426
13.03333	-0.2246808
13.05	-0.2153191
13.06667	-0.2106383
13.08333	-0.2012766
13.1	-0.1965957
13.11667	-0.187234
13.13333	-0.1825532
13.15	-0.1731915
13.16667	-0.1685106
13.18333	-0.1638298
13.2	-0.1591489
13.21667	-0.1544681
13.23333	-0.1497872
13.25	-0.1451064
13.26667	-0.1404255
13.28333	-0.1357447
13.3	-0.1310638
13.31667	-0.126383
13.33333	-0.126383
13.35	-0.1217021
13.36667	-0.1170213
13.38333	-0.1170213
13.4	-0.1123404
13.41667	-0.1123404
13.43333	-0.1076596
13.45	-0.1029787
13.46667	-0.1029787
13.48333	-0.09829787
13.5	-0.09829787
13.51667	-0.09361702
13.53333	-0.09361702
13.55	-0.08893617
13.56667	-0.08893617
13.58333	-0.08893617
13.6	-0.08425532
13.61667	-0.08425532
13.63333	-0.08425532
13.65	-0.07957447
13.66667	-0.07957447
13.68333	-0.07957447
13.7	-0.07957447
13.71667	-0.07489362
13.73333	-0.07489362
13.75	-0.07489362
13.76667	-0.07489362
13.78333	-0.07489362
13.8	-0.07489362
13.81667	-0.07021277
13.83333	-0.07021277
13.85	-0.07021277
13.86667	-0.07021277
13.88333	-0.07021277
13.9	-0.07021277
13.91667	-0.07021277
13.93333	-0.06553191
13.95	-0.06553191
13.96667	-0.07021277
13.98333	-0.07021277
14	-0.07021277
14.01667	-0.07021277
14.03333	-0.06553191
14.05	-0.06553191
14.06667	-0.06553191
14.08333	-0.06553191
14.1	-0.06553191
14.11667	-0.06553191
14.13333	-0.06553191
14.15	-0.06553191
14.16667	-0.06553191
14.18333	-0.06553191
14.2	-0.06553191
14.21667	-0.06553191
14.23333	-0.06553191
14.25	-0.06553191
14.26667	-0.06553191
14.28333	-0.06553191
14.3	-0.06553191
14.31667	-0.06553191
14.33333	-0.06553191
14.35	-0.06553191
14.36667	-0.06553191
14.38333	-0.06553191
14.4	-0.06553191
14.41667	-0.06553191
14.43333	-0.06553191
14.45	-0.06553191
14.46667	-0.06085106
14.48333	-0.06085106
14.5	-0.06085106
14.51667	-0.06085106
14.53333	-0.06085106
14.55	-0.06085106
14.56667	-0.06085106
14.58333	-0.06085106
14.6	-0.05617021
14.61667	-0.05617021
14.63333	-0.05617021
14.65	-0.05617021
14.66667	-0.05617021
14.68333	-0.05148936
14.7	-0.05148936
14.71667	-0.05148936
14.73333	-0.05148936
14.75	-0.04680851
14.76667	-0.04680851
14.78333	-0.04680851
14.8	-0.04680851
14.81667	-0.04680851
14.83333	-0.04212766
14.85	-0.04212766
14.86667	-0.04212766
14.88333	-0.04212766
14.9	-0.04212766
14.91667	-0.03744681
14.93333	-0.03744681
14.95	-0.03744681
14.96667	-0.03744681
14.98333	-0.03744681
15	-0.03276596
15.01667	-0.03276596
15.03333	-0.03276596
15.05	-0.03276596
15.06667	-0.02808511
15.08333	-0.02808511
15.1	-0.02808511
15.11667	-0.02808511
15.13333	-0.02808511
15.15	-0.02340426
15.16667	-0.02340426
15.18333	-0.02340426
15.2	-0.02340426
15.21667	-0.02340426
15.23333	-0.02340426
15.25	-0.0187234
15.26667	-0.0187234
15.28333	-0.0187234
15.3	-0.0187234
15.31667	-0.0187234
15.33333	-0.0187234
15.35	-0.01404255
15.36667	-0.01404255
15.38333	-0.01404255
15.4	-0.01404255
15.41667	-0.01404255
15.43333	-0.01404255
15.45	-0.009361702
15.46667	-0.009361702
15.48333	-0.009361702
15.5	-0.009361702
15.51667	-0.009361702
15.53333	-0.009361702
15.55	-0.004680851
15.56667	-0.004680851
15.58333	-0.009361702
15.6	-0.009361702
15.61667	-0.004680851
15.63333	-0.004680851
15.65	-0.004680851
15.66667	-0.004680851
15.68333	-0.004680851
15.7	-0.004680851
15.71667	-0.004680851
15.73333	-0.004680851
15.75	0
15.76667	-0.004680851
15.78333	-0.004680851
15.8	-0.004680851
15.81667	0
15.83333	0
15.85	0
15.86667	0
15.88333	0
15.9	0
15.91667	0
15.93333	0
15.95	0
15.96667	0
15.98333	0
16	0
16.01667	0
16.03333	0
16.05	0.004680851
16.06667	0.004680851
16.08333	0.004680851
16.1	0.004680851
16.11667	0.004680851
16.13333	0.004680851
16.15	0.004680851
16.16667	0.004680851
16.18333	0.004680851
16.2	0.004680851
16.21667	0.004680851
16.23333	0.004680851
16.25	0.004680851
16.26667	0.004680851
16.28333	0.004680851
16.3	0.004680851
16.31667	0.004680851
16.33333	0.004680851
16.35	0.009361702
16.36667	0.004680851
16.38333	0.004680851
16.4	0.004680851
16.41667	0.004680851
16.43333	0.004680851
16.45	0.009361702
16.46667	0.009361702
16.48333	0.009361702
16.5	0.009361702
16.51667	0.009361702
16.53333	0.009361702
16.55	0.009361702
16.56667	0.009361702
16.58333	0.009361702
16.6	0.009361702
16.61667	0.009361702
16.63333	0.009361702
16.65	0.009361702
16.66667	0.009361702
16.68333	0.009361702
16.7	0.009361702
16.71667	0.009361702
16.73333	0.01404255
16.75	0.01404255
16.76667	0.01404255
16.78333	0.009361702
16.8	0.01404255
16.81667	0.01404255
16.83333	0.01404255
16.85	0.01404255
16.86667	0.01404255
16.88333	0.01404255
16.9	0.01404255
16.91667	0.01404255
16.93333	0.01404255
16.95	0.01404255
16.96667	0.01404255
16.98333	0.01404255
17	0.01404255
17.01667	0.01404255
17.03333	0.01404255
17.05	0.01404255
17.06667	0.01404255
17.08333	0.01404255
17.1	0.01404255
17.11667	0.01404255
17.13333	0.01404255
17.15	0.01404255
17.16667	0.01404255
17.18333	0.01404255
17.2	0.01404255
17.21667	0.01404255
17.23333	0.01404255
17.25	0.0187234
17.26667	0.0187234
17.28333	0.0187234
17.3	0.0187234
17.31667	0.0187234
17.33333	0.0187234
17.35	0.0187234
17.36667	0.0187234
17.38333	0.0187234
17.4	0.0187234
17.41667	0.0187234
17.43333	0.0187234
17.45	0.0187234
17.46667	0.0187234
17.48333	0.0187234
17.5	0.0187234
17.51667	0.0187234
17.53333	0.0187234
17.55	0.0187234
17.56667	0.0187234
17.58333	0.0187234
17.6	0.0187234
17.61667	0.0187234
17.63333	0.0187234
17.65	0.0187234
17.66667	0.0187234
17.68333	0.0187234
17.7	0.0187234
17.71667	0.0187234
17.73333	0.0187234
17.75	0.0187234
17.76667	0.0187234
17.78333	0.0187234
17.8	0.0187234
17.81667	0.0187234
17.83333	0.0187234
17.85	0.0187234
17.86667	0.0187234
17.88333	0.0187234
17.9	0.0187234
17.91667	0.0187234
17.93333	0.0187234
17.95	0.0187234
17.96667	0.0187234
17.98333	0.0187234
18	0.0187234
18.01667	0.0187234
18.03333	0.0187234
18.05	0.0187234
18.06667	0.0187234
18.08333	0.0187234
18.1	0.0187234
18.11667	0.0187234
18.13333	0.0187234
18.15	0.0187234
18.16667	0.0187234
18.18333	0.01404255
18.2	0.01404255
18.21667	0.01404255
18.23333	0.01404255
18.25	0.0187234
18.26667	0.01404255
18.28333	0.01404255
18.3	0.01404255
18.31667	0.01404255
18.33333	0.01404255
18.35	0.0187234
18.36667	0.01404255
18.38333	0.01404255
18.4	0.01404255
18.41667	0.01404255
18.43333	0.01404255
18.45	0.0187234
18.46667	0.01404255
18.48333	0.01404255
18.5	0.01404255
18.51667	0.01404255
18.53333	0.01404255
18.55	0.01404255
18.56667	0.01404255
18.58333	0.01404255
18.6	0.01404255
18.61667	0.01404255
18.63333	0.01404255
18.65	0.01404255
18.66667	0.01404255
18.68333	0.01404255
18.7	0.01404255
18.71667	0.01404255
18.73333	0.01404255
18.75	0.01404255
18.76667	0.01404255
18.78333	0.01404255
18.8	0.01404255
18.81667	0.01404255
18.83333	0.01404255
18.85	0.01404255
18.86667	0.01404255
18.88333	0.01404255
18.9	0.01404255
18.91667	0.01404255
18.93333	0.01404255
18.95	0.01404255
18.96667	0.01404255
18.98333	0.01404255
19	0.01404255
19.01667	0.01404255
19.03333	0.01404255
19.05	0.01404255
19.06667	0.01404255
19.08333	0.01404255
19.1	0.01404255
19.11667	0.01404255
19.13333	0.01404255
19.15	0.01404255
19.16667	0.009361702
19.18333	0.009361702
19.2	0.009361702
19.21667	0.009361702
19.23333	0.009361702
19.25	0.009361702
19.26667	0.009361702
19.28333	0.009361702
19.3	0.009361702
19.31667	0.009361702
19.33333	0.009361702
19.35	0.009361702
19.36667	0.009361702
19.38333	0.009361702
19.4	0.009361702
19.41667	0.009361702
19.43333	0.009361702
19.45	0.009361702
19.46667	0.009361702
19.48333	0.009361702
19.5	0.009361702
19.51667	0.009361702
19.53333	0.009361702
19.55	0.009361702
19.56667	0.009361702
19.58333	0.009361702
19.6	0.009361702
19.61667	0.009361702
19.63333	0.009361702
19.65	0.009361702
19.66667	0.009361702
19.68333	0.009361702
19.7	0.009361702
19.71667	0.009361702
19.73333	0.009361702
19.75	0.009361702
19.76667	0.009361702
19.78333	0.009361702
19.8	0.009361702
19.81667	0.009361702
19.83333	0.009361702
19.85	0.009361702
19.86667	0.009361702
19.88333	0.009361702
19.9	0.009361702
19.91667	0.009361702
19.93333	0.009361702
19.95	0.009361702
19.96667	0.009361702
19.98333	0.009361702
20	0.009361702
