"Sample Set Id"	1752
"Sample Set Name"	"sad100124HPA"
"System Name"	"System III"
"Instrument Method Name"	"System 3_RI"
"SampleName"	"PMMA1.1kDa"
"Injection"	1
"Vial"	"1"
"Channel"	"410 "
0.01666667	-0.1170213
0.03333333	-0.04680851
0.05	-0.0187234
0.06666667	-0.009361702
0.08333333	-0.004680851
0.1	0
0.1166667	0
0.1333333	0
0.15	0
0.1666667	0
0.1833333	-0.02808511
0.2	-0.1076596
0.2166667	-0.2059574
0.2333333	-0.2948936
0.25	-0.3931915
0.2666667	-0.4868085
0.2833333	-0.5851064
0.3	-0.6834042
0.3166667	-0.7817021
0.3333333	-0.8565957
0.35	-0.9361702
0.3666667	-1.020426
0.3833333	-1.104681
0.4	-1.193617
0.4166667	-1.282553
0.4333333	-1.352766
0.45	-1.42766
0.4666667	-1.502553
0.4833333	-1.582128
0.5	-1.666383
0.5166667	-1.745957
0.5333333	-1.802128
0.55	-1.862979
0.5666667	-1.928511
0.5833333	-1.998723
0.6	-2.078298
0.6166667	-2.153191
0.6333333	-2.209362
0.65	-2.270213
0.6666667	-2.335745
0.6833333	-2.405957
0.7	-2.47617
0.7166667	-2.546383
0.7333333	-2.588511
0.75	-2.635319
0.7666667	-2.691489
0.7833333	-2.75234
0.8	-2.817872
0.8166667	-2.883404
0.8333333	-2.930213
0.85	-2.981702
0.8666667	-3.037872
0.8833333	-3.098723
0.9	-3.159574
0.9166667	-3.220425
0.9333333	-3.253191
0.95	-3.285957
0.9666667	-3.332766
0.9833333	-3.384255
1	-3.445106
1.016667	-3.501277
1.033333	-3.538723
1.05	-3.580851
1.066667	-3.62766
1.083333	-3.679149
1.1	-3.735319
1.116667	-3.786808
1.133333	-3.810213
1.15	-3.838298
1.166667	-3.875745
1.183333	-3.922553
1.2	-3.974043
1.216667	-4.020851
1.233333	-4.053617
1.25	-4.086383
1.266667	-4.12383
1.283333	-4.165957
1.3	-4.217447
1.316667	-4.264255
1.333333	-4.278298
1.35	-4.301702
1.366667	-4.334468
1.383333	-4.371915
1.4	-4.414043
1.416667	-4.460851
1.433333	-4.479574
1.45	-4.50766
1.466667	-4.540425
1.483333	-4.577872
1.5	-4.62
1.516667	-4.657447
1.533333	-4.666808
1.55	-4.67617
1.566667	-4.704255
1.583333	-4.73234
1.6	-4.774468
1.616667	-4.811915
1.633333	-4.830638
1.65	-4.849362
1.666667	-4.877447
1.683333	-4.910213
1.7	-4.94766
1.716667	-4.985106
1.733333	-4.985106
1.75	-4.989787
1.766667	-5.008511
1.783333	-5.036596
1.8	-5.069362
1.816667	-5.106808
1.833333	-5.120851
1.85	-5.134894
1.866667	-5.162979
1.883333	-5.191064
1.9	-5.22383
1.916667	-5.256596
1.933333	-5.247234
1.95	-5.247234
1.966667	-5.261277
1.983333	-5.289362
2	-5.317447
2.016667	-5.350213
2.033333	-5.359574
2.05	-5.373617
2.066667	-5.39234
2.083333	-5.420425
2.1	-5.448511
2.116667	-5.476596
2.133333	-5.467234
2.15	-5.467234
2.166667	-5.481277
2.183333	-5.504681
2.2	-5.532766
2.216667	-5.560851
2.233333	-5.565532
2.25	-5.574894
2.266667	-5.588936
2.283333	-5.61234
2.3	-5.640425
2.316667	-5.66383
2.333333	-5.649787
2.35	-5.649787
2.366667	-5.659149
2.383333	-5.673191
2.4	-5.701277
2.416667	-5.724681
2.433333	-5.724681
2.45	-5.734042
2.466667	-5.748085
2.483333	-5.766808
2.5	-5.790213
2.516667	-5.813617
2.533333	-5.799574
2.55	-5.790213
2.566667	-5.799574
2.583333	-5.813617
2.6	-5.837021
2.616667	-5.860425
2.633333	-5.855745
2.65	-5.865106
2.666667	-5.874468
2.683333	-5.893191
2.7	-5.916596
2.716667	-5.935319
2.733333	-5.921277
2.75	-5.916596
2.766667	-5.921277
2.783333	-5.935319
2.8	-5.958723
2.816667	-5.977447
2.833333	-5.972766
2.85	-5.977447
2.866667	-5.986808
2.883333	-6.000851
2.9	-6.024255
2.916667	-6.042979
2.933333	-6.028936
2.95	-6.014894
2.966667	-6.019574
2.983333	-6.033617
3	-6.05234
3.016667	-6.071064
3.033333	-6.066383
3.05	-6.066383
3.066667	-6.075745
3.083333	-6.089787
3.1	-6.108511
3.116667	-6.127234
3.133333	-6.10383
3.15	-6.089787
3.166667	-6.094468
3.183333	-6.10383
3.2	-6.122553
3.216667	-6.141277
3.233333	-6.136596
3.25	-6.136596
3.266667	-6.145957
3.283333	-6.16
3.3	-6.178723
3.316667	-6.192766
3.333333	-6.169362
3.35	-6.155319
3.366667	-6.155319
3.383333	-6.164681
3.4	-6.183404
3.416667	-6.202128
3.433333	-6.192766
3.45	-6.192766
3.466667	-6.197447
3.483333	-6.211489
3.5	-6.230213
3.516667	-6.248936
3.533333	-6.225532
3.55	-6.206808
3.566667	-6.206808
3.583333	-6.21617
3.6	-6.234894
3.616667	-6.253617
3.633333	-6.244255
3.65	-6.239574
3.666667	-6.244255
3.683333	-6.258298
3.7	-6.277021
3.716667	-6.291064
3.733333	-6.26766
3.75	-6.253617
3.766667	-6.253617
3.783333	-6.258298
3.8	-6.277021
3.816667	-6.295745
3.833333	-6.286383
3.85	-6.281702
3.866667	-6.286383
3.883333	-6.295745
3.9	-6.314468
3.916667	-6.328511
3.933333	-6.305106
3.95	-6.286383
3.966667	-6.286383
3.983333	-6.291064
4	-6.309787
4.016667	-6.32383
4.033333	-6.314468
4.05	-6.309787
4.066667	-6.314468
4.083333	-6.32383
4.1	-6.337872
4.116667	-6.356596
4.133333	-6.328511
4.15	-6.309787
4.166667	-6.305106
4.183333	-6.314468
4.2	-6.328511
4.216667	-6.342553
4.233333	-6.337872
4.25	-6.333191
4.266667	-6.337872
4.283333	-6.347234
4.3	-6.361277
4.316667	-6.375319
4.333333	-6.351915
4.35	-6.333191
4.366667	-6.328511
4.383333	-6.337872
4.4	-6.351915
4.416667	-6.365957
4.433333	-6.356596
4.45	-6.351915
4.466667	-6.356596
4.483333	-6.365957
4.5	-6.38
4.516667	-6.394042
4.533333	-6.365957
4.55	-6.342553
4.566667	-6.337872
4.583333	-6.347234
4.6	-6.361277
4.616667	-6.375319
4.633333	-6.361277
4.65	-6.356596
4.666667	-6.361277
4.683333	-6.365957
4.7	-6.38
4.716667	-6.394042
4.733333	-6.370638
4.75	-6.356596
4.766667	-6.351915
4.783333	-6.356596
4.8	-6.370638
4.816667	-6.384681
4.833333	-6.375319
4.85	-6.365957
4.866667	-6.370638
4.883333	-6.375319
4.9	-6.394042
4.916667	-6.403404
4.933333	-6.38
4.95	-6.365957
4.966667	-6.361277
4.983333	-6.365957
5	-6.38
5.016667	-6.394042
5.033333	-6.38
5.05	-6.375319
5.066667	-6.375319
5.083333	-6.38
5.1	-6.394042
5.116667	-6.408085
5.133333	-6.384681
5.15	-6.365957
5.166667	-6.361277
5.183333	-6.370638
5.2	-6.38
5.216667	-6.394042
5.233333	-6.384681
5.25	-6.38
5.266667	-6.38
5.283333	-6.389362
5.3	-6.403404
5.316667	-6.412766
5.333333	-6.389362
5.35	-6.370638
5.366667	-6.365957
5.383333	-6.370638
5.4	-6.384681
5.416667	-6.398723
5.433333	-6.384681
5.45	-6.38
5.466667	-6.38
5.483333	-6.389362
5.5	-6.403404
5.516667	-6.412766
5.533333	-6.384681
5.55	-6.361277
5.566667	-6.356596
5.583333	-6.361277
5.6	-6.375319
5.616667	-6.389362
5.633333	-6.375319
5.65	-6.370638
5.666667	-6.370638
5.683333	-6.38
5.7	-6.394042
5.716667	-6.403404
5.733333	-6.38
5.75	-6.361277
5.766667	-6.351915
5.783333	-6.361277
5.8	-6.375319
5.816667	-6.384681
5.833333	-6.375319
5.85	-6.365957
5.866667	-6.370638
5.883333	-6.375319
5.9	-6.389362
5.916667	-6.403404
5.933333	-6.375319
5.95	-6.356596
5.966667	-6.351915
5.983333	-6.361277
6	-6.370638
6.016667	-6.384681
6.033333	-6.370638
6.05	-6.365957
6.066667	-6.365957
6.083333	-6.370638
6.1	-6.384681
6.116667	-6.398723
6.133333	-6.370638
6.15	-6.347234
6.166667	-6.337872
6.183333	-6.347234
6.2	-6.356596
6.216667	-6.370638
6.233333	-6.356596
6.25	-6.351915
6.266667	-6.351915
6.283333	-6.361277
6.3	-6.375319
6.316667	-6.384681
6.333333	-6.361277
6.35	-6.347234
6.366667	-6.342553
6.383333	-6.347234
6.4	-6.356596
6.416667	-6.370638
6.433333	-6.361277
6.45	-6.351915
6.466667	-6.351915
6.483333	-6.361277
6.5	-6.375319
6.516667	-6.389362
6.533333	-6.356596
6.55	-6.337872
6.566667	-6.333191
6.583333	-6.337872
6.6	-6.351915
6.616667	-6.365957
6.633333	-6.351915
6.65	-6.347234
6.666667	-6.351915
6.683333	-6.356596
6.7	-6.370638
6.716667	-6.384681
6.733333	-6.356596
6.75	-6.333191
6.766667	-6.32383
6.783333	-6.333191
6.8	-6.347234
6.816667	-6.361277
6.833333	-6.347234
6.85	-6.342553
6.866667	-6.347234
6.883333	-6.356596
6.9	-6.370638
6.916667	-6.384681
6.933333	-6.356596
6.95	-6.333191
6.966667	-6.328511
6.983333	-6.333191
7	-6.347234
7.016667	-6.361277
7.033333	-6.347234
7.05	-6.342553
7.066667	-6.347234
7.083333	-6.351915
7.1	-6.365957
7.116667	-6.38
7.133333	-6.351915
7.15	-6.333191
7.166667	-6.328511
7.183333	-6.333191
7.2	-6.347234
7.216667	-6.361277
7.233333	-6.347234
7.25	-6.337872
7.266667	-6.337872
7.283333	-6.342553
7.3	-6.356596
7.316667	-6.370638
7.333333	-6.347234
7.35	-6.328511
7.366667	-6.319149
7.383333	-6.32383
7.4	-6.337872
7.416667	-6.351915
7.433333	-6.337872
7.45	-6.333191
7.466667	-6.333191
7.483333	-6.337872
7.5	-6.351915
7.516667	-6.365957
7.533333	-6.342553
7.55	-6.32383
7.566667	-6.319149
7.583333	-6.32383
7.6	-6.333191
7.616667	-6.347234
7.633333	-6.333191
7.65	-6.328511
7.666667	-6.328511
7.683333	-6.337872
7.7	-6.351915
7.716667	-6.365957
7.733333	-6.333191
7.75	-6.314468
7.766667	-6.305106
7.783333	-6.309787
7.8	-6.32383
7.816667	-6.337872
7.833333	-6.328511
7.85	-6.32383
7.866667	-6.32383
7.883333	-6.333191
7.9	-6.347234
7.916667	-6.356596
7.933333	-6.328511
7.95	-6.305106
7.966667	-6.295745
7.983333	-6.305106
8	-6.314468
8.016667	-6.328511
8.033333	-6.319149
8.05	-6.314468
8.066667	-6.314468
8.083333	-6.32383
8.1	-6.337872
8.116667	-6.351915
8.133333	-6.32383
8.15	-6.300425
8.166667	-6.295745
8.183333	-6.300425
8.2	-6.314468
8.216667	-6.328511
8.233333	-6.314468
8.25	-6.309787
8.266667	-6.314468
8.283333	-6.319149
8.3	-6.333191
8.316667	-6.347234
8.333333	-6.319149
8.35	-6.295745
8.366667	-6.291064
8.383333	-6.295745
8.4	-6.309787
8.416667	-6.32383
8.433333	-6.314468
8.45	-6.309787
8.466667	-6.314468
8.483333	-6.319149
8.5	-6.337872
8.516667	-6.351915
8.533333	-6.328511
8.55	-6.309787
8.566667	-6.309787
8.583333	-6.314468
8.6	-6.328511
8.616667	-6.347234
8.633333	-6.333191
8.65	-6.328511
8.666667	-6.333191
8.683333	-6.337872
8.7	-6.351915
8.716667	-6.365957
8.733333	-6.337872
8.75	-6.319149
8.766667	-6.314468
8.783333	-6.319149
8.8	-6.328511
8.816667	-6.342553
8.833333	-6.328511
8.85	-6.319149
8.866667	-6.314468
8.883333	-6.319149
8.9	-6.32383
8.916667	-6.328511
8.933333	-6.291064
8.95	-6.258298
8.966667	-6.234894
8.983333	-6.21617
9	-6.197447
9.016667	-6.178723
9.033333	-6.122553
9.05	-6.066383
9.066667	-6.000851
9.083333	-5.935319
9.1	-5.860425
9.116667	-5.771489
9.133333	-5.631064
9.15	-5.481277
9.166667	-5.33617
9.183333	-5.186383
9.2	-5.036596
9.216667	-4.877447
9.233333	-4.685532
9.25	-4.488936
9.266667	-4.29234
9.283333	-4.100425
9.3	-3.917872
9.316667	-3.725957
9.333333	-3.505957
9.35	-3.295319
9.366667	-3.108085
9.383333	-2.939574
9.4	-2.785106
9.416667	-2.644681
9.433333	-2.494894
9.45	-2.36383
9.466667	-2.25617
9.483333	-2.167234
9.5	-2.101702
9.516667	-2.054894
9.533333	-1.984681
9.55	-1.937872
9.566667	-1.92383
9.583333	-1.928511
9.6	-1.956596
9.616667	-2.003404
9.633333	-2.03617
9.65	-2.08766
9.666667	-2.153191
9.683333	-2.232766
9.7	-2.331064
9.716667	-2.434043
9.733333	-2.504255
9.75	-2.588511
9.766667	-2.69617
9.783333	-2.813191
9.8	-2.948936
9.816667	-3.098723
9.833333	-3.229787
9.85	-3.388936
9.866667	-3.57617
9.883333	-3.79617
9.9	-4.053617
9.916667	-4.339149
9.933333	-4.615319
9.95	-4.928936
9.966667	-5.28
9.983333	-5.659149
10	-6.057021
10.01667	-6.464255
10.03333	-6.848085
10.05	-7.241277
10.06667	-7.648511
10.08333	-8.08383
10.1	-8.575319
10.11667	-9.146383
10.13333	-9.787659
10.15	-10.56936
10.16667	-11.50085
10.18333	-12.54
10.2	-13.64468
10.21667	-14.74
10.23333	-15.73702
10.25	-16.62638
10.26667	-17.36596
10.28333	-17.93234
10.3	-18.31617
10.31667	-18.51277
10.33333	-18.49404
10.35	-18.33489
10.36667	-18.05872
10.38333	-17.6983
10.4	-17.27234
10.41667	-16.79489
10.43333	-16.26128
10.45	-15.71362
10.46667	-15.16596
10.48333	-14.62766
10.5	-14.10808
10.51667	-13.60723
10.53333	-13.09702
10.55	-12.61957
10.56667	-12.19362
10.58333	-11.81447
10.6	-11.47277
10.61667	-11.16383
10.63333	-10.85957
10.65	-10.58808
10.66667	-10.34936
10.68333	-10.12936
10.7	-9.942128
10.71667	-9.764255
10.73333	-9.562979
10.75	-9.375745
10.76667	-9.211915
10.78333	-9.071489
10.8	-8.945106
10.81667	-8.828085
10.83333	-8.697021
10.85	-8.575319
10.86667	-8.458298
10.88333	-8.350638
10.9	-8.25234
10.91667	-8.144681
10.93333	-7.994894
10.95	-7.845106
10.96667	-7.704681
10.98333	-7.568936
11	-7.442553
11.01667	-7.320851
11.03333	-7.175745
11.05	-7.044681
11.06667	-6.93234
11.08333	-6.834042
11.1	-6.759149
11.11667	-6.693617
11.13333	-6.604681
11.15	-6.529787
11.16667	-6.478298
11.18333	-6.445532
11.2	-6.426808
11.21667	-6.417447
11.23333	-6.384681
11.25	-6.365957
11.26667	-6.356596
11.28333	-6.351915
11.3	-6.356596
11.31667	-6.365957
11.33333	-6.337872
11.35	-6.319149
11.36667	-6.319149
11.38333	-6.32383
11.4	-6.337872
11.41667	-6.356596
11.43333	-6.351915
11.45	-6.351915
11.46667	-6.361277
11.48333	-6.375319
11.5	-6.398723
11.51667	-6.417447
11.53333	-6.398723
11.55	-6.389362
11.56667	-6.389362
11.58333	-6.398723
11.6	-6.417447
11.61667	-6.431489
11.63333	-6.422128
11.65	-6.417447
11.66667	-6.412766
11.68333	-6.412766
11.7	-6.422128
11.71667	-6.426808
11.73333	-6.389362
11.75	-6.361277
11.76667	-6.347234
11.78333	-6.337872
11.8	-6.347234
11.81667	-6.351915
11.83333	-6.337872
11.85	-6.328511
11.86667	-6.32383
11.88333	-6.328511
11.9	-6.347234
11.91667	-6.361277
11.93333	-6.337872
11.95	-6.32383
11.96667	-6.32383
11.98333	-6.337872
12	-6.356596
12.01667	-6.384681
12.03333	-6.384681
12.05	-6.389362
12.06667	-6.408085
12.08333	-6.426808
12.1	-6.454894
12.11667	-6.482979
12.13333	-6.478298
12.15	-6.473617
12.16667	-6.482979
12.18333	-6.501702
12.2	-6.529787
12.21667	-6.562553
12.23333	-6.567234
12.25	-6.576596
12.26667	-6.595319
12.28333	-6.618723
12.3	-6.646808
12.31667	-6.679574
12.33333	-6.674894
12.35	-6.674894
12.36667	-6.698298
12.38333	-6.731064
12.4	-6.777872
12.41667	-6.834042
12.43333	-6.866808
12.45	-6.913617
12.46667	-6.969787
12.48333	-7.035319
12.5	-7.105532
12.51667	-7.180425
12.53333	-7.208511
12.55	-7.241277
12.56667	-7.283404
12.58333	-7.325532
12.6	-7.362979
12.61667	-7.400425
12.63333	-7.395745
12.65	-7.391064
12.66667	-7.377021
12.68333	-7.362979
12.7	-7.348936
12.71667	-7.325532
12.73333	-7.26
12.75	-7.194468
12.76667	-7.142979
12.78333	-7.09617
12.8	-7.058723
12.81667	-7.021277
12.83333	-6.965106
12.85	-6.913617
12.86667	-6.866808
12.88333	-6.834042
12.9	-6.805957
12.91667	-6.777872
12.93333	-6.717021
12.95	-6.660851
12.96667	-6.628085
12.98333	-6.604681
13	-6.595319
13.01667	-6.590638
13.03333	-6.567234
13.05	-6.548511
13.06667	-6.54383
13.08333	-6.548511
13.1	-6.557872
13.11667	-6.576596
13.13333	-6.548511
13.15	-6.529787
13.16667	-6.529787
13.18333	-6.534468
13.2	-6.553191
13.21667	-6.567234
13.23333	-6.553191
13.25	-6.548511
13.26667	-6.54383
13.28333	-6.539149
13.3	-6.54383
13.31667	-6.54383
13.33333	-6.501702
13.35	-6.464255
13.36667	-6.440851
13.38333	-6.422128
13.4	-6.417447
13.41667	-6.408085
13.43333	-6.38
13.45	-6.356596
13.46667	-6.337872
13.48333	-6.32383
13.5	-6.319149
13.51667	-6.314468
13.53333	-6.27234
13.55	-6.239574
13.56667	-6.220851
13.58333	-6.211489
13.6	-6.211489
13.61667	-6.211489
13.63333	-6.192766
13.65	-6.174042
13.66667	-6.169362
13.68333	-6.164681
13.7	-6.169362
13.71667	-6.178723
13.73333	-6.145957
13.75	-6.122553
13.76667	-6.108511
13.78333	-6.108511
13.8	-6.113191
13.81667	-6.122553
13.83333	-6.108511
13.85	-6.10383
13.86667	-6.094468
13.88333	-6.099149
13.9	-6.108511
13.91667	-6.117872
13.93333	-6.089787
13.95	-6.061702
13.96667	-6.05234
13.98333	-6.057021
14	-6.061702
14.01667	-6.075745
14.03333	-6.057021
14.05	-6.05234
14.06667	-6.04766
14.08333	-6.05234
14.1	-6.061702
14.11667	-6.071064
14.13333	-6.042979
14.15	-6.019574
14.16667	-6.014894
14.18333	-6.014894
14.2	-6.019574
14.21667	-6.033617
14.23333	-6.014894
14.25	-6.010213
14.26667	-6.005532
14.28333	-6.014894
14.3	-6.024255
14.31667	-6.033617
14.33333	-6.005532
14.35	-5.982128
14.36667	-5.972766
14.38333	-5.977447
14.4	-5.986808
14.41667	-6.000851
14.43333	-5.986808
14.45	-5.977447
14.46667	-5.977447
14.48333	-5.982128
14.5	-5.991489
14.51667	-6.005532
14.53333	-5.977447
14.55	-5.949362
14.56667	-5.944681
14.58333	-5.944681
14.6	-5.958723
14.61667	-5.972766
14.63333	-5.958723
14.65	-5.954042
14.66667	-5.954042
14.68333	-5.963404
14.7	-5.977447
14.71667	-5.986808
14.73333	-5.963404
14.75	-5.94
14.76667	-5.935319
14.78333	-5.94
14.8	-5.949362
14.81667	-5.963404
14.83333	-5.954042
14.85	-5.949362
14.86667	-5.949362
14.88333	-5.954042
14.9	-5.968085
14.91667	-5.982128
14.93333	-5.954042
14.95	-5.935319
14.96667	-5.930638
14.98333	-5.930638
15	-5.944681
15.01667	-5.954042
15.03333	-5.944681
15.05	-5.94
15.06667	-5.94
15.08333	-5.944681
15.1	-5.958723
15.11667	-5.968085
15.13333	-5.944681
15.15	-5.921277
15.16667	-5.916596
15.18333	-5.921277
15.2	-5.930638
15.21667	-5.944681
15.23333	-5.930638
15.25	-5.925957
15.26667	-5.925957
15.28333	-5.930638
15.3	-5.944681
15.31667	-5.954042
15.33333	-5.930638
15.35	-5.907234
15.36667	-5.902553
15.38333	-5.907234
15.4	-5.916596
15.41667	-5.930638
15.43333	-5.916596
15.45	-5.911915
15.46667	-5.911915
15.48333	-5.916596
15.5	-5.930638
15.51667	-5.944681
15.53333	-5.916596
15.55	-5.897872
15.56667	-5.888511
15.58333	-5.893191
15.6	-5.902553
15.61667	-5.911915
15.63333	-5.902553
15.65	-5.893191
15.66667	-5.893191
15.68333	-5.897872
15.7	-5.911915
15.71667	-5.921277
15.73333	-5.893191
15.75	-5.869787
15.76667	-5.865106
15.78333	-5.869787
15.8	-5.879149
15.81667	-5.893191
15.83333	-5.879149
15.85	-5.874468
15.86667	-5.874468
15.88333	-5.879149
15.9	-5.893191
15.91667	-5.902553
15.93333	-5.879149
15.95	-5.860425
15.96667	-5.851064
15.98333	-5.855745
16	-5.865106
16.01667	-5.879149
16.03333	-5.869787
16.05	-5.860425
16.06667	-5.860425
16.08333	-5.865106
16.1	-5.879149
16.11667	-5.888511
16.13333	-5.865106
16.15	-5.841702
16.16667	-5.837021
16.18333	-5.841702
16.2	-5.851064
16.21667	-5.865106
16.23333	-5.851064
16.25	-5.846383
16.26667	-5.846383
16.28333	-5.855745
16.3	-5.865106
16.31667	-5.879149
16.33333	-5.851064
16.35	-5.83234
16.36667	-5.822979
16.38333	-5.82766
16.4	-5.837021
16.41667	-5.851064
16.43333	-5.837021
16.45	-5.83234
16.46667	-5.83234
16.48333	-5.837021
16.5	-5.851064
16.51667	-5.865106
16.53333	-5.837021
16.55	-5.818298
16.56667	-5.808936
16.58333	-5.813617
16.6	-5.822979
16.61667	-5.837021
16.63333	-5.822979
16.65	-5.818298
16.66667	-5.818298
16.68333	-5.82766
16.7	-5.837021
16.71667	-5.851064
16.73333	-5.82766
16.75	-5.808936
16.76667	-5.804255
16.78333	-5.808936
16.8	-5.818298
16.81667	-5.83234
16.83333	-5.822979
16.85	-5.813617
16.86667	-5.818298
16.88333	-5.822979
16.9	-5.83234
16.91667	-5.846383
16.93333	-5.822979
16.95	-5.799574
16.96667	-5.794894
16.98333	-5.799574
17	-5.808936
17.01667	-5.822979
17.03333	-5.808936
17.05	-5.804255
17.06667	-5.804255
17.08333	-5.808936
17.1	-5.822979
17.11667	-5.837021
17.13333	-5.808936
17.15	-5.790213
17.16667	-5.780851
17.18333	-5.785532
17.2	-5.794894
17.21667	-5.808936
17.23333	-5.799574
17.25	-5.794894
17.26667	-5.799574
17.28333	-5.804255
17.3	-5.818298
17.31667	-5.82766
17.33333	-5.804255
17.35	-5.780851
17.36667	-5.77617
17.38333	-5.780851
17.4	-5.790213
17.41667	-5.808936
17.43333	-5.799574
17.45	-5.794894
17.46667	-5.794894
17.48333	-5.799574
17.5	-5.813617
17.51667	-5.822979
17.53333	-5.799574
17.55	-5.780851
17.56667	-5.771489
17.58333	-5.77617
17.6	-5.790213
17.61667	-5.804255
17.63333	-5.794894
17.65	-5.785532
17.66667	-5.785532
17.68333	-5.794894
17.7	-5.808936
17.71667	-5.822979
17.73333	-5.799574
17.75	-5.780851
17.76667	-5.77617
17.78333	-5.780851
17.8	-5.790213
17.81667	-5.804255
17.83333	-5.794894
17.85	-5.790213
17.86667	-5.790213
17.88333	-5.794894
17.9	-5.808936
17.91667	-5.822979
17.93333	-5.799574
17.95	-5.77617
17.96667	-5.771489
17.98333	-5.77617
18	-5.785532
18.01667	-5.799574
18.03333	-5.785532
18.05	-5.780851
18.06667	-5.780851
18.08333	-5.785532
18.1	-5.799574
18.11667	-5.808936
18.13333	-5.785532
18.15	-5.766808
18.16667	-5.757447
18.18333	-5.762128
18.2	-5.771489
18.21667	-5.785532
18.23333	-5.77617
18.25	-5.771489
18.26667	-5.771489
18.28333	-5.780851
18.3	-5.790213
18.31667	-5.804255
18.33333	-5.77617
18.35	-5.752766
18.36667	-5.748085
18.38333	-5.752766
18.4	-5.766808
18.41667	-5.780851
18.43333	-5.771489
18.45	-5.766808
18.46667	-5.771489
18.48333	-5.77617
18.5	-5.790213
18.51667	-5.799574
18.53333	-5.77617
18.55	-5.757447
18.56667	-5.752766
18.58333	-5.757447
18.6	-5.766808
18.61667	-5.780851
18.63333	-5.771489
18.65	-5.766808
18.66667	-5.766808
18.68333	-5.77617
18.7	-5.785532
18.71667	-5.799574
18.73333	-5.780851
18.75	-5.762128
18.76667	-5.752766
18.78333	-5.762128
18.8	-5.771489
18.81667	-5.785532
18.83333	-5.77617
18.85	-5.766808
18.86667	-5.766808
18.88333	-5.77617
18.9	-5.785532
18.91667	-5.799574
18.93333	-5.780851
18.95	-5.762128
18.96667	-5.752766
18.98333	-5.757447
19	-5.766808
19.01667	-5.780851
19.03333	-5.771489
19.05	-5.766808
19.06667	-5.766808
19.08333	-5.771489
19.1	-5.785532
19.11667	-5.799574
19.13333	-5.77617
19.15	-5.757447
19.16667	-5.752766
19.18333	-5.757447
19.2	-5.766808
19.21667	-5.780851
19.23333	-5.771489
19.25	-5.762128
19.26667	-5.762128
19.28333	-5.771489
19.3	-5.785532
19.31667	-5.794894
19.33333	-5.771489
19.35	-5.752766
19.36667	-5.748085
19.38333	-5.752766
19.4	-5.762128
19.41667	-5.780851
19.43333	-5.771489
19.45	-5.766808
19.46667	-5.771489
19.48333	-5.77617
19.5	-5.790213
19.51667	-5.804255
19.53333	-5.77617
19.55	-5.757447
19.56667	-5.752766
19.58333	-5.757447
19.6	-5.766808
19.61667	-5.780851
19.63333	-5.771489
19.65	-5.766808
19.66667	-5.771489
19.68333	-5.77617
19.7	-5.790213
19.71667	-5.804255
19.73333	-5.780851
19.75	-5.762128
19.76667	-5.757447
19.78333	-5.762128
19.8	-5.77617
19.81667	-5.790213
19.83333	-5.780851
19.85	-5.77617
19.86667	-5.77617
19.88333	-5.785532
19.9	-5.794894
19.91667	-5.808936
19.93333	-5.790213
19.95	-5.771489
19.96667	-5.766808
19.98333	-5.771489
20	-5.785532
