"Sample Set Id"	1752
"Sample Set Name"	"sad100124HPA"
"System Name"	"System III"
"Instrument Method Name"	"System 3_RI"
"SampleName"	"PMMA12.8kDa"
"Injection"	1
"Vial"	"4"
"Channel"	"410 "
0.01666667	0.2012766
0.03333333	0.07489362
0.05	0.02808511
0.06666667	0.009361702
0.08333333	0.004680851
0.1	0
0.1166667	0
0.1333333	0
0.15	0
0.1666667	0
0.1833333	0
0.2	0
0.2166667	0
0.2333333	0
0.25	0
0.2666667	0.004680851
0.2833333	0.004680851
0.3	0.004680851
0.3166667	0.004680851
0.3333333	0.004680851
0.35	0.004680851
0.3666667	0.004680851
0.3833333	0.004680851
0.4	0.009361702
0.4166667	0.009361702
0.4333333	0.009361702
0.45	0.009361702
0.4666667	0.009361702
0.4833333	0.009361702
0.5	0.009361702
0.5166667	0.01404255
0.5333333	0.009361702
0.55	0.009361702
0.5666667	0.009361702
0.5833333	0.01404255
0.6	0.01404255
0.6166667	0.01404255
0.6333333	0.01404255
0.65	0.01404255
0.6666667	0.01404255
0.6833333	0.01404255
0.7	0.01404255
0.7166667	0.01404255
0.7333333	0.01404255
0.75	0.01404255
0.7666667	0.01404255
0.7833333	0.01404255
0.8	0.01404255
0.8166667	0.01404255
0.8333333	0.01404255
0.85	0.01404255
0.8666667	0.01404255
0.8833333	0.01404255
0.9	0.01404255
0.9166667	0.0187234
0.9333333	0.01404255
0.95	0.01404255
0.9666667	0.01404255
0.9833333	0.01404255
1	0.01404255
1.016667	0.01404255
1.033333	0.01404255
1.05	0.01404255
1.066667	0.01404255
1.083333	0.01404255
1.1	0.01404255
1.116667	0.01404255
1.133333	0.01404255
1.15	0.01404255
1.166667	0.01404255
1.183333	0.01404255
1.2	0.01404255
1.216667	0.01404255
1.233333	0.01404255
1.25	0.01404255
1.266667	0.01404255
1.283333	0.01404255
1.3	0.01404255
1.316667	0.01404255
1.333333	0.01404255
1.35	0.01404255
1.366667	0.01404255
1.383333	0.01404255
1.4	0.01404255
1.416667	0.01404255
1.433333	0.01404255
1.45	0.01404255
1.466667	0.01404255
1.483333	0.01404255
1.5	0.01404255
1.516667	0.01404255
1.533333	0.01404255
1.55	0.009361702
1.566667	0.009361702
1.583333	0.01404255
1.6	0.01404255
1.616667	0.01404255
1.633333	0.01404255
1.65	0.01404255
1.666667	0.009361702
1.683333	0.009361702
1.7	0.01404255
1.716667	0.01404255
1.733333	0.009361702
1.75	0.009361702
1.766667	0.009361702
1.783333	0.009361702
1.8	0.009361702
1.816667	0.009361702
1.833333	0.009361702
1.85	0.009361702
1.866667	0.009361702
1.883333	0.009361702
1.9	0.009361702
1.916667	0.01404255
1.933333	0.009361702
1.95	0.009361702
1.966667	0.009361702
1.983333	0.009361702
2	0.009361702
2.016667	0.009361702
2.033333	0.009361702
2.05	0.009361702
2.066667	0.009361702
2.083333	0.009361702
2.1	0.009361702
2.116667	0.009361702
2.133333	0.009361702
2.15	0.009361702
2.166667	0.009361702
2.183333	0.009361702
2.2	0.009361702
2.216667	0.009361702
2.233333	0.009361702
2.25	0.009361702
2.266667	0.009361702
2.283333	0.009361702
2.3	0.009361702
2.316667	0.009361702
2.333333	0.009361702
2.35	0.009361702
2.366667	0.004680851
2.383333	0.004680851
2.4	0.004680851
2.416667	0.009361702
2.433333	0.009361702
2.45	0.009361702
2.466667	0.004680851
2.483333	0.009361702
2.5	0.009361702
2.516667	0.009361702
2.533333	0.004680851
2.55	0.004680851
2.566667	0.004680851
2.583333	0.004680851
2.6	0.004680851
2.616667	0.004680851
2.633333	0.004680851
2.65	0.004680851
2.666667	0.004680851
2.683333	0.004680851
2.7	0.004680851
2.716667	0.004680851
2.733333	0.004680851
2.75	0.004680851
2.766667	0.004680851
2.783333	0.004680851
2.8	0.004680851
2.816667	0.004680851
2.833333	0.004680851
2.85	0.004680851
2.866667	0.004680851
2.883333	0.004680851
2.9	0.004680851
2.916667	0.004680851
2.933333	0.004680851
2.95	0.004680851
2.966667	0.004680851
2.983333	0.004680851
3	0.004680851
3.016667	0.004680851
3.033333	0.004680851
3.05	0.004680851
3.066667	0.004680851
3.083333	0.004680851
3.1	0.004680851
3.116667	0.004680851
3.133333	0.004680851
3.15	0.004680851
3.166667	0.004680851
3.183333	0.004680851
3.2	0.004680851
3.216667	0.004680851
3.233333	0.004680851
3.25	0.004680851
3.266667	0.004680851
3.283333	0.004680851
3.3	0.004680851
3.316667	0.004680851
3.333333	0.004680851
3.35	0.004680851
3.366667	0.004680851
3.383333	0.004680851
3.4	0.004680851
3.416667	0.004680851
3.433333	0.004680851
3.45	0.004680851
3.466667	0.004680851
3.483333	0.004680851
3.5	0.004680851
3.516667	0.004680851
3.533333	0.004680851
3.55	0.004680851
3.566667	0.004680851
3.583333	0.004680851
3.6	0.004680851
3.616667	0.004680851
3.633333	0.004680851
3.65	0.004680851
3.666667	0.004680851
3.683333	0.004680851
3.7	0.004680851
3.716667	0.004680851
3.733333	0.004680851
3.75	0.004680851
3.766667	0.004680851
3.783333	0.004680851
3.8	0.004680851
3.816667	0.004680851
3.833333	0.004680851
3.85	0.004680851
3.866667	0.004680851
3.883333	0.004680851
3.9	0.009361702
3.916667	0.009361702
3.933333	0.004680851
3.95	0.004680851
3.966667	0.004680851
3.983333	0.004680851
4	0.004680851
4.016667	0.009361702
4.033333	0.009361702
4.05	0.009361702
4.066667	0.004680851
4.083333	0.009361702
4.1	0.009361702
4.116667	0.009361702
4.133333	0.009361702
4.15	0.009361702
4.166667	0.009361702
4.183333	0.004680851
4.2	0.009361702
4.216667	0.009361702
4.233333	0.009361702
4.25	0.009361702
4.266667	0.009361702
4.283333	0.009361702
4.3	0.009361702
4.316667	0.009361702
4.333333	0.009361702
4.35	0.009361702
4.366667	0.009361702
4.383333	0.009361702
4.4	0.009361702
4.416667	0.009361702
4.433333	0.009361702
4.45	0.009361702
4.466667	0.009361702
4.483333	0.009361702
4.5	0.009361702
4.516667	0.009361702
4.533333	0.009361702
4.55	0.009361702
4.566667	0.009361702
4.583333	0.009361702
4.6	0.009361702
4.616667	0.009361702
4.633333	0.009361702
4.65	0.009361702
4.666667	0.009361702
4.683333	0.009361702
4.7	0.009361702
4.716667	0.01404255
4.733333	0.009361702
4.75	0.009361702
4.766667	0.009361702
4.783333	0.009361702
4.8	0.009361702
4.816667	0.01404255
4.833333	0.01404255
4.85	0.01404255
4.866667	0.01404255
4.883333	0.01404255
4.9	0.01404255
4.916667	0.01404255
4.933333	0.01404255
4.95	0.01404255
4.966667	0.01404255
4.983333	0.01404255
5	0.01404255
5.016667	0.01404255
5.033333	0.01404255
5.05	0.01404255
5.066667	0.01404255
5.083333	0.01404255
5.1	0.01404255
5.116667	0.01404255
5.133333	0.01404255
5.15	0.01404255
5.166667	0.01404255
5.183333	0.01404255
5.2	0.01404255
5.216667	0.01404255
5.233333	0.01404255
5.25	0.01404255
5.266667	0.01404255
5.283333	0.01404255
5.3	0.01404255
5.316667	0.0187234
5.333333	0.01404255
5.35	0.01404255
5.366667	0.01404255
5.383333	0.01404255
5.4	0.01404255
5.416667	0.01404255
5.433333	0.01404255
5.45	0.01404255
5.466667	0.01404255
5.483333	0.01404255
5.5	0.0187234
5.516667	0.0187234
5.533333	0.01404255
5.55	0.01404255
5.566667	0.01404255
5.583333	0.01404255
5.6	0.01404255
5.616667	0.0187234
5.633333	0.01404255
5.65	0.0187234
5.666667	0.0187234
5.683333	0.01404255
5.7	0.0187234
5.716667	0.0187234
5.733333	0.01404255
5.75	0.01404255
5.766667	0.01404255
5.783333	0.01404255
5.8	0.01404255
5.816667	0.01404255
5.833333	0.01404255
5.85	0.01404255
5.866667	0.01404255
5.883333	0.01404255
5.9	0.01404255
5.916667	0.01404255
5.933333	0.01404255
5.95	0.01404255
5.966667	0.01404255
5.983333	0.01404255
6	0.01404255
6.016667	0.01404255
6.033333	0.01404255
6.05	0.01404255
6.066667	0.01404255
6.083333	0.01404255
6.1	0.01404255
6.116667	0.01404255
6.133333	0.009361702
6.15	0.009361702
6.166667	0.009361702
6.183333	0.009361702
6.2	0.009361702
6.216667	0.009361702
6.233333	0.009361702
6.25	0.009361702
6.266667	0.009361702
6.283333	0.009361702
6.3	0.009361702
6.316667	0.009361702
6.333333	0.004680851
6.35	0.004680851
6.366667	0.004680851
6.383333	0.004680851
6.4	0.004680851
6.416667	0.009361702
6.433333	0.004680851
6.45	0.004680851
6.466667	0.004680851
6.483333	0.004680851
6.5	0.004680851
6.516667	0.009361702
6.533333	0.004680851
6.55	0.004680851
6.566667	0.004680851
6.583333	0.004680851
6.6	0.004680851
6.616667	0.004680851
6.633333	0.004680851
6.65	0.004680851
6.666667	0.004680851
6.683333	0.004680851
6.7	0.004680851
6.716667	0.004680851
6.733333	0.004680851
6.75	0.004680851
6.766667	0
6.783333	0.004680851
6.8	0.004680851
6.816667	0.004680851
6.833333	0.004680851
6.85	0.004680851
6.866667	0.004680851
6.883333	0.004680851
6.9	0.004680851
6.916667	0.004680851
6.933333	0.004680851
6.95	0
6.966667	0
6.983333	0
7	0
7.016667	0.004680851
7.033333	0
7.05	0
7.066667	0
7.083333	0
7.1	0
7.116667	0
7.133333	0
7.15	0
7.166667	0
7.183333	0
7.2	0
7.216667	0
7.233333	0
7.25	0
7.266667	0
7.283333	0
7.3	0
7.316667	0.004680851
7.333333	0
7.35	0
7.366667	0
7.383333	0
7.4	0
7.416667	0
7.433333	0
7.45	0
7.466667	0
7.483333	0
7.5	0
7.516667	0
7.533333	0
7.55	-0.004680851
7.566667	-0.004680851
7.583333	-0.004680851
7.6	-0.004680851
7.616667	0
7.633333	-0.004680851
7.65	-0.004680851
7.666667	-0.004680851
7.683333	0
7.7	0
7.716667	0.004680851
7.733333	0.004680851
7.75	0.01404255
7.766667	0.02340426
7.783333	0.04212766
7.8	0.06553191
7.816667	0.1029787
7.833333	0.1591489
7.85	0.2293617
7.866667	0.3323404
7.883333	0.4634042
7.9	0.6319149
7.916667	0.847234
7.933333	1.104681
7.95	1.413617
7.966667	1.783404
7.983333	2.214043
8	2.69617
8.016667	3.229787
8.033333	3.791489
8.05	4.385957
8.066667	4.994468
8.083333	5.598298
8.1	6.174042
8.116667	6.721702
8.133333	7.199149
8.15	7.615745
8.166667	7.962128
8.183333	8.224255
8.2	8.402128
8.216667	8.505106
8.233333	8.528511
8.25	8.486383
8.266667	8.383404
8.283333	8.228936
8.3	8.03234
8.316667	7.798298
8.333333	7.545532
8.35	7.269362
8.366667	6.98383
8.383333	6.693617
8.4	6.398723
8.416667	6.108511
8.433333	5.822979
8.45	5.542128
8.466667	5.270638
8.483333	5.013191
8.5	4.760425
8.516667	4.521702
8.533333	4.297021
8.55	4.081702
8.566667	3.871064
8.583333	3.674468
8.6	3.487234
8.616667	3.304681
8.633333	3.126808
8.65	2.958298
8.666667	2.794468
8.683333	2.64
8.7	2.490213
8.716667	2.345106
8.733333	2.204681
8.75	2.068936
8.766667	1.937872
8.783333	1.81617
8.8	1.70383
8.816667	1.591489
8.833333	1.493191
8.85	1.399574
8.866667	1.310638
8.883333	1.231064
8.9	1.160851
8.916667	1.095319
8.933333	1.034468
8.95	0.9829787
8.966667	0.9361702
8.983333	0.8940425
9	0.8612766
9.016667	0.8285106
9.033333	0.8004255
9.05	0.7770213
9.066667	0.7582979
9.083333	0.7395745
9.1	0.7302128
9.116667	0.7161702
9.133333	0.7068085
9.15	0.6974468
9.166667	0.6880851
9.183333	0.6834042
9.2	0.6787234
9.216667	0.6740425
9.233333	0.6693617
9.25	0.6646808
9.266667	0.66
9.283333	0.6553191
9.3	0.6506383
9.316667	0.6459574
9.333333	0.6365957
9.35	0.6319149
9.366667	0.6225532
9.383333	0.6178723
9.4	0.6085106
9.416667	0.5991489
9.433333	0.5897872
9.45	0.5851064
9.466667	0.5757447
9.483333	0.566383
9.5	0.5617021
9.516667	0.5570213
9.533333	0.5476596
9.55	0.5429787
9.566667	0.5382979
9.583333	0.533617
9.6	0.5289362
9.616667	0.5242553
9.633333	0.5148936
9.65	0.5055319
9.666667	0.4821277
9.683333	0.4540425
9.7	0.407234
9.716667	0.3417021
9.733333	0.252766
9.75	0.1357447
9.766667	-0.009361702
9.783333	-0.1778723
9.8	-0.3697872
9.816667	-0.5804255
9.833333	-0.8051064
9.85	-1.039149
9.866667	-1.273191
9.883333	-1.507234
9.9	-1.741277
9.916667	-1.989362
9.933333	-2.260851
9.95	-2.579149
9.966667	-2.96766
9.983333	-3.454468
10	-4.06766
10.01667	-4.807234
10.03333	-5.66383
10.05	-6.590638
10.06667	-7.531489
10.08333	-8.406808
10.1	-9.151064
10.11667	-9.717447
10.13333	-10.07319
10.15	-10.2183
10.16667	-10.17149
10.18333	-9.960851
10.2	-9.62383
10.21667	-9.193191
10.23333	-8.706383
10.25	-8.19617
10.26667	-7.671915
10.28333	-7.161702
10.3	-6.665532
10.31667	-6.197447
10.33333	-5.766808
10.35	-5.368936
10.36667	-5.00383
10.38333	-4.67617
10.4	-4.376596
10.41667	-4.105106
10.43333	-3.866383
10.45	-3.655745
10.46667	-3.468511
10.48333	-3.295319
10.5	-3.140851
10.51667	-3.000425
10.53333	-2.869362
10.55	-2.74766
10.56667	-2.625957
10.58333	-2.513617
10.6	-2.401277
10.61667	-2.293617
10.63333	-2.185957
10.65	-2.082979
10.66667	-1.975319
10.68333	-1.87234
10.7	-1.769362
10.71667	-1.666383
10.73333	-1.568085
10.75	-1.465106
10.76667	-1.362128
10.78333	-1.259149
10.8	-1.160851
10.81667	-1.057872
10.83333	-0.9642553
10.85	-0.88
10.86667	-0.7957447
10.88333	-0.7255319
10.9	-0.66
10.91667	-0.6085106
10.93333	-0.566383
10.95	-0.5289362
10.96667	-0.5008511
10.98333	-0.4774468
11	-0.4634042
11.01667	-0.4540425
11.03333	-0.4446808
11.05	-0.44
11.06667	-0.4353191
11.08333	-0.4353191
11.1	-0.4353191
11.11667	-0.44
11.13333	-0.4446808
11.15	-0.4493617
11.16667	-0.4540425
11.18333	-0.4587234
11.2	-0.4634042
11.21667	-0.4680851
11.23333	-0.4774468
11.25	-0.4821277
11.26667	-0.4868085
11.28333	-0.4868085
11.3	-0.4914894
11.31667	-0.4914894
11.33333	-0.4961702
11.35	-0.4961702
11.36667	-0.4961702
11.38333	-0.4961702
11.4	-0.4961702
11.41667	-0.4914894
11.43333	-0.4868085
11.45	-0.4868085
11.46667	-0.4821277
11.48333	-0.4774468
11.5	-0.472766
11.51667	-0.4680851
11.53333	-0.4634042
11.55	-0.4587234
11.56667	-0.4540425
11.58333	-0.4540425
11.6	-0.4587234
11.61667	-0.4634042
11.63333	-0.4774468
11.65	-0.4961702
11.66667	-0.5195745
11.68333	-0.5476596
11.7	-0.5851064
11.71667	-0.6319149
11.73333	-0.6834042
11.75	-0.7442553
11.76667	-0.8051064
11.78333	-0.8706383
11.8	-0.9314894
11.81667	-0.9970213
11.83333	-1.053191
11.85	-1.104681
11.86667	-1.146808
11.88333	-1.179574
11.9	-1.202979
11.91667	-1.217021
11.93333	-1.226383
11.95	-1.226383
11.96667	-1.221702
11.98333	-1.21234
12	-1.193617
12.01667	-1.174894
12.03333	-1.15617
12.05	-1.137447
12.06667	-1.114043
12.08333	-1.095319
12.1	-1.076596
12.11667	-1.062553
12.13333	-1.053191
12.15	-1.04383
12.16667	-1.039149
12.18333	-1.029787
12.2	-1.034468
12.21667	-1.039149
12.23333	-1.04383
12.25	-1.053191
12.26667	-1.062553
12.28333	-1.071915
12.3	-1.081277
12.31667	-1.090638
12.33333	-1.1
12.35	-1.1
12.36667	-1.1
12.38333	-1.1
12.4	-1.090638
12.41667	-1.076596
12.43333	-1.062553
12.45	-1.039149
12.46667	-1.015745
12.48333	-0.9876596
12.5	-0.9595745
12.51667	-0.9268085
12.53333	-0.8940425
12.55	-0.8612766
12.56667	-0.8285106
12.58333	-0.7957447
12.6	-0.7582979
12.61667	-0.7255319
12.63333	-0.6927659
12.65	-0.6553191
12.66667	-0.6225532
12.68333	-0.5944681
12.7	-0.5617021
12.71667	-0.533617
12.73333	-0.5055319
12.75	-0.4821277
12.76667	-0.4540425
12.78333	-0.4306383
12.8	-0.4119149
12.81667	-0.3885106
12.83333	-0.3697872
12.85	-0.3510638
12.86667	-0.3370213
12.88333	-0.3182979
12.9	-0.3042553
12.91667	-0.2855319
12.93333	-0.2761702
12.95	-0.2621277
12.96667	-0.252766
12.98333	-0.2434043
13	-0.2340426
13.01667	-0.22
13.03333	-0.2153191
13.05	-0.2059574
13.06667	-0.1965957
13.08333	-0.187234
13.1	-0.1825532
13.11667	-0.1731915
13.13333	-0.1685106
13.15	-0.1638298
13.16667	-0.1591489
13.18333	-0.1497872
13.2	-0.1451064
13.21667	-0.1404255
13.23333	-0.1357447
13.25	-0.1310638
13.26667	-0.126383
13.28333	-0.1217021
13.3	-0.1170213
13.31667	-0.1123404
13.33333	-0.1076596
13.35	-0.1076596
13.36667	-0.1029787
13.38333	-0.1029787
13.4	-0.09829787
13.41667	-0.09361702
13.43333	-0.09361702
13.45	-0.08893617
13.46667	-0.08425532
13.48333	-0.08425532
13.5	-0.07957447
13.51667	-0.07957447
13.53333	-0.07489362
13.55	-0.07489362
13.56667	-0.07489362
13.58333	-0.07489362
13.6	-0.07021277
13.61667	-0.07021277
13.63333	-0.06553191
13.65	-0.06553191
13.66667	-0.06553191
13.68333	-0.06085106
13.7	-0.06085106
13.71667	-0.06085106
13.73333	-0.06085106
13.75	-0.06085106
13.76667	-0.06085106
13.78333	-0.06085106
13.8	-0.05617021
13.81667	-0.05617021
13.83333	-0.05617021
13.85	-0.05617021
13.86667	-0.05617021
13.88333	-0.05617021
13.9	-0.05617021
13.91667	-0.05148936
13.93333	-0.05617021
13.95	-0.05617021
13.96667	-0.05617021
13.98333	-0.05617021
14	-0.05617021
14.01667	-0.05148936
14.03333	-0.05148936
14.05	-0.05148936
14.06667	-0.05148936
14.08333	-0.05148936
14.1	-0.05148936
14.11667	-0.05148936
14.13333	-0.05148936
14.15	-0.05148936
14.16667	-0.05148936
14.18333	-0.05148936
14.2	-0.05148936
14.21667	-0.05148936
14.23333	-0.05148936
14.25	-0.05148936
14.26667	-0.05148936
14.28333	-0.05148936
14.3	-0.05148936
14.31667	-0.05148936
14.33333	-0.05148936
14.35	-0.05148936
14.36667	-0.05148936
14.38333	-0.05148936
14.4	-0.05148936
14.41667	-0.05148936
14.43333	-0.05148936
14.45	-0.05148936
14.46667	-0.05148936
14.48333	-0.05148936
14.5	-0.04680851
14.51667	-0.04680851
14.53333	-0.04680851
14.55	-0.04680851
14.56667	-0.04680851
14.58333	-0.04680851
14.6	-0.04680851
14.61667	-0.04212766
14.63333	-0.04212766
14.65	-0.04212766
14.66667	-0.04212766
14.68333	-0.04212766
14.7	-0.04212766
14.71667	-0.03744681
14.73333	-0.03744681
14.75	-0.03744681
14.76667	-0.03744681
14.78333	-0.03744681
14.8	-0.03744681
14.81667	-0.03744681
14.83333	-0.03276596
14.85	-0.03276596
14.86667	-0.03276596
14.88333	-0.03276596
14.9	-0.03276596
14.91667	-0.02808511
14.93333	-0.02808511
14.95	-0.02808511
14.96667	-0.02808511
14.98333	-0.02808511
15	-0.02808511
15.01667	-0.02808511
15.03333	-0.02340426
15.05	-0.02340426
15.06667	-0.02340426
15.08333	-0.02340426
15.1	-0.02340426
15.11667	-0.0187234
15.13333	-0.0187234
15.15	-0.0187234
15.16667	-0.0187234
15.18333	-0.0187234
15.2	-0.0187234
15.21667	-0.01404255
15.23333	-0.01404255
15.25	-0.01404255
15.26667	-0.01404255
15.28333	-0.01404255
15.3	-0.01404255
15.31667	-0.009361702
15.33333	-0.009361702
15.35	-0.009361702
15.36667	-0.009361702
15.38333	-0.009361702
15.4	-0.009361702
15.41667	-0.009361702
15.43333	-0.009361702
15.45	-0.009361702
15.46667	-0.009361702
15.48333	-0.004680851
15.5	-0.004680851
15.51667	-0.004680851
15.53333	-0.004680851
15.55	-0.004680851
15.56667	-0.004680851
15.58333	-0.004680851
15.6	-0.004680851
15.61667	0
15.63333	-0.004680851
15.65	0
15.66667	0
15.68333	0
15.7	0
15.71667	0
15.73333	0
15.75	0
15.76667	0
15.78333	0
15.8	0
15.81667	0
15.83333	0
15.85	0
15.86667	0.004680851
15.88333	0.004680851
15.9	0.004680851
15.91667	0.004680851
15.93333	0.004680851
15.95	0.004680851
15.96667	0.004680851
15.98333	0.004680851
16	0.004680851
16.01667	0.004680851
16.03333	0.004680851
16.05	0.004680851
16.06667	0.004680851
16.08333	0.004680851
16.1	0.004680851
16.11667	0.004680851
16.13333	0.004680851
16.15	0.004680851
16.16667	0.004680851
16.18333	0.004680851
16.2	0.004680851
16.21667	0.004680851
16.23333	0.004680851
16.25	0.004680851
16.26667	0.004680851
16.28333	0.004680851
16.3	0.004680851
16.31667	0.009361702
16.33333	0.004680851
16.35	0.004680851
16.36667	0.004680851
16.38333	0.004680851
16.4	0.009361702
16.41667	0.009361702
16.43333	0.009361702
16.45	0.009361702
16.46667	0.009361702
16.48333	0.009361702
16.5	0.009361702
16.51667	0.009361702
16.53333	0.009361702
16.55	0.009361702
16.56667	0.009361702
16.58333	0.009361702
16.6	0.009361702
16.61667	0.009361702
16.63333	0.009361702
16.65	0.009361702
16.66667	0.009361702
16.68333	0.009361702
16.7	0.009361702
16.71667	0.01404255
16.73333	0.009361702
16.75	0.009361702
16.76667	0.009361702
16.78333	0.009361702
16.8	0.009361702
16.81667	0.009361702
16.83333	0.009361702
16.85	0.009361702
16.86667	0.009361702
16.88333	0.01404255
16.9	0.01404255
16.91667	0.01404255
16.93333	0.01404255
16.95	0.01404255
16.96667	0.01404255
16.98333	0.01404255
17	0.01404255
17.01667	0.01404255
17.03333	0.01404255
17.05	0.01404255
17.06667	0.01404255
17.08333	0.01404255
17.1	0.01404255
17.11667	0.01404255
17.13333	0.01404255
17.15	0.01404255
17.16667	0.01404255
17.18333	0.01404255
17.2	0.01404255
17.21667	0.01404255
17.23333	0.01404255
17.25	0.01404255
17.26667	0.01404255
17.28333	0.01404255
17.3	0.01404255
17.31667	0.0187234
17.33333	0.01404255
17.35	0.01404255
17.36667	0.01404255
17.38333	0.01404255
17.4	0.01404255
17.41667	0.0187234
17.43333	0.0187234
17.45	0.0187234
17.46667	0.0187234
17.48333	0.0187234
17.5	0.0187234
17.51667	0.0187234
17.53333	0.0187234
17.55	0.0187234
17.56667	0.0187234
17.58333	0.0187234
17.6	0.0187234
17.61667	0.0187234
17.63333	0.0187234
17.65	0.0187234
17.66667	0.0187234
17.68333	0.0187234
17.7	0.0187234
17.71667	0.0187234
17.73333	0.0187234
17.75	0.0187234
17.76667	0.0187234
17.78333	0.0187234
17.8	0.0187234
17.81667	0.0187234
17.83333	0.0187234
17.85	0.0187234
17.86667	0.0187234
17.88333	0.0187234
17.9	0.0187234
17.91667	0.0187234
17.93333	0.0187234
17.95	0.0187234
17.96667	0.0187234
17.98333	0.0187234
18	0.0187234
18.01667	0.0187234
18.03333	0.0187234
18.05	0.0187234
18.06667	0.0187234
18.08333	0.0187234
18.1	0.02340426
18.11667	0.02340426
18.13333	0.0187234
18.15	0.0187234
18.16667	0.0187234
18.18333	0.0187234
18.2	0.0187234
18.21667	0.0187234
18.23333	0.0187234
18.25	0.0187234
18.26667	0.0187234
18.28333	0.0187234
18.3	0.0187234
18.31667	0.02340426
18.33333	0.0187234
18.35	0.0187234
18.36667	0.0187234
18.38333	0.0187234
18.4	0.0187234
18.41667	0.02340426
18.43333	0.0187234
18.45	0.0187234
18.46667	0.0187234
18.48333	0.0187234
18.5	0.0187234
18.51667	0.02340426
18.53333	0.0187234
18.55	0.0187234
18.56667	0.0187234
18.58333	0.0187234
18.6	0.0187234
18.61667	0.0187234
18.63333	0.0187234
18.65	0.0187234
18.66667	0.0187234
18.68333	0.0187234
18.7	0.0187234
18.71667	0.02340426
18.73333	0.0187234
18.75	0.0187234
18.76667	0.0187234
18.78333	0.0187234
18.8	0.0187234
18.81667	0.02340426
18.83333	0.0187234
18.85	0.0187234
18.86667	0.0187234
18.88333	0.02340426
18.9	0.02340426
18.91667	0.02340426
18.93333	0.0187234
18.95	0.0187234
18.96667	0.0187234
18.98333	0.0187234
19	0.02340426
19.01667	0.02340426
19.03333	0.02340426
19.05	0.02340426
19.06667	0.02340426
19.08333	0.02340426
19.1	0.02340426
19.11667	0.02340426
19.13333	0.02340426
19.15	0.0187234
19.16667	0.02340426
19.18333	0.02340426
19.2	0.02340426
19.21667	0.02340426
19.23333	0.02340426
19.25	0.02340426
19.26667	0.02340426
19.28333	0.02340426
19.3	0.02340426
19.31667	0.02340426
19.33333	0.02340426
19.35	0.0187234
19.36667	0.0187234
19.38333	0.0187234
19.4	0.0187234
19.41667	0.0187234
19.43333	0.02340426
19.45	0.0187234
19.46667	0.0187234
19.48333	0.0187234
19.5	0.0187234
19.51667	0.02340426
19.53333	0.0187234
19.55	0.0187234
19.56667	0.0187234
19.58333	0.0187234
19.6	0.0187234
19.61667	0.0187234
19.63333	0.0187234
19.65	0.02340426
19.66667	0.0187234
19.68333	0.0187234
19.7	0.02340426
19.71667	0.02340426
19.73333	0.0187234
19.75	0.0187234
19.76667	0.0187234
19.78333	0.0187234
19.8	0.0187234
19.81667	0.02340426
19.83333	0.0187234
19.85	0.0187234
19.86667	0.0187234
19.88333	0.0187234
19.9	0.02340426
19.91667	0.02340426
19.93333	0.0187234
19.95	0.0187234
19.96667	0.0187234
19.98333	0.02340426
20	0.02340426
