"Sample Set Id"	1752
"Sample Set Name"	"sad100124HPA"
"System Name"	"System III"
"Instrument Method Name"	"System 3_RI"
"SampleName"	"PMMA22.8kDa"
"Injection"	1
"Vial"	"5"
"Channel"	"410 "
0.01666667	0.009361702
0.03333333	0
0.05	0
0.06666667	0
0.08333333	0
0.1	0
0.1166667	0
0.1333333	0
0.15	0
0.1666667	0
0.1833333	0
0.2	0
0.2166667	0
0.2333333	0.004680851
0.25	0.004680851
0.2666667	0.004680851
0.2833333	0.004680851
0.3	0.004680851
0.3166667	0.004680851
0.3333333	0.004680851
0.35	0.009361702
0.3666667	0.009361702
0.3833333	0.009361702
0.4	0.009361702
0.4166667	0.009361702
0.4333333	0.009361702
0.45	0.01404255
0.4666667	0.01404255
0.4833333	0.009361702
0.5	0.009361702
0.5166667	0.01404255
0.5333333	0.01404255
0.55	0.01404255
0.5666667	0.01404255
0.5833333	0.01404255
0.6	0.01404255
0.6166667	0.01404255
0.6333333	0.01404255
0.65	0.0187234
0.6666667	0.01404255
0.6833333	0.01404255
0.7	0.01404255
0.7166667	0.01404255
0.7333333	0.0187234
0.75	0.0187234
0.7666667	0.0187234
0.7833333	0.0187234
0.8	0.0187234
0.8166667	0.0187234
0.8333333	0.0187234
0.85	0.0187234
0.8666667	0.0187234
0.8833333	0.0187234
0.9	0.0187234
0.9166667	0.0187234
0.9333333	0.0187234
0.95	0.0187234
0.9666667	0.0187234
0.9833333	0.0187234
1	0.0187234
1.016667	0.0187234
1.033333	0.02340426
1.05	0.02340426
1.066667	0.02340426
1.083333	0.0187234
1.1	0.0187234
1.116667	0.0187234
1.133333	0.02340426
1.15	0.02340426
1.166667	0.02340426
1.183333	0.02340426
1.2	0.02340426
1.216667	0.02340426
1.233333	0.02340426
1.25	0.02340426
1.266667	0.02340426
1.283333	0.02340426
1.3	0.02340426
1.316667	0.02340426
1.333333	0.02340426
1.35	0.02340426
1.366667	0.02340426
1.383333	0.02340426
1.4	0.02340426
1.416667	0.02340426
1.433333	0.02340426
1.45	0.02340426
1.466667	0.02340426
1.483333	0.02340426
1.5	0.02340426
1.516667	0.02340426
1.533333	0.02340426
1.55	0.02340426
1.566667	0.02340426
1.583333	0.02340426
1.6	0.02340426
1.616667	0.02340426
1.633333	0.02340426
1.65	0.02340426
1.666667	0.02340426
1.683333	0.02340426
1.7	0.02340426
1.716667	0.02340426
1.733333	0.02340426
1.75	0.02340426
1.766667	0.02340426
1.783333	0.02340426
1.8	0.02340426
1.816667	0.02340426
1.833333	0.02340426
1.85	0.02340426
1.866667	0.02340426
1.883333	0.02340426
1.9	0.02340426
1.916667	0.02340426
1.933333	0.02340426
1.95	0.02340426
1.966667	0.02340426
1.983333	0.02340426
2	0.02340426
2.016667	0.02340426
2.033333	0.02340426
2.05	0.02808511
2.066667	0.02340426
2.083333	0.02340426
2.1	0.02340426
2.116667	0.02340426
2.133333	0.02340426
2.15	0.02340426
2.166667	0.02340426
2.183333	0.02340426
2.2	0.02340426
2.216667	0.02340426
2.233333	0.02808511
2.25	0.02808511
2.266667	0.02808511
2.283333	0.02340426
2.3	0.02340426
2.316667	0.02340426
2.333333	0.02340426
2.35	0.02340426
2.366667	0.02340426
2.383333	0.02340426
2.4	0.02340426
2.416667	0.02808511
2.433333	0.02808511
2.45	0.02808511
2.466667	0.02808511
2.483333	0.02340426
2.5	0.02340426
2.516667	0.02340426
2.533333	0.02340426
2.55	0.02340426
2.566667	0.02340426
2.583333	0.02340426
2.6	0.02340426
2.616667	0.02340426
2.633333	0.02808511
2.65	0.02808511
2.666667	0.02340426
2.683333	0.02340426
2.7	0.02340426
2.716667	0.02340426
2.733333	0.02340426
2.75	0.02340426
2.766667	0.02340426
2.783333	0.02340426
2.8	0.02340426
2.816667	0.02340426
2.833333	0.02340426
2.85	0.02340426
2.866667	0.02340426
2.883333	0.02340426
2.9	0.02340426
2.916667	0.02340426
2.933333	0.02340426
2.95	0.02340426
2.966667	0.02340426
2.983333	0.02340426
3	0.02340426
3.016667	0.02340426
3.033333	0.02340426
3.05	0.02340426
3.066667	0.02340426
3.083333	0.02340426
3.1	0.02340426
3.116667	0.02340426
3.133333	0.02340426
3.15	0.02340426
3.166667	0.02340426
3.183333	0.02340426
3.2	0.02340426
3.216667	0.02340426
3.233333	0.02340426
3.25	0.02340426
3.266667	0.02340426
3.283333	0.02340426
3.3	0.02340426
3.316667	0.02340426
3.333333	0.02340426
3.35	0.02340426
3.366667	0.02340426
3.383333	0.02340426
3.4	0.02340426
3.416667	0.02340426
3.433333	0.02340426
3.45	0.02340426
3.466667	0.02340426
3.483333	0.02340426
3.5	0.02340426
3.516667	0.02340426
3.533333	0.02340426
3.55	0.02340426
3.566667	0.02340426
3.583333	0.02340426
3.6	0.02340426
3.616667	0.02340426
3.633333	0.02340426
3.65	0.02340426
3.666667	0.02340426
3.683333	0.0187234
3.7	0.0187234
3.716667	0.0187234
3.733333	0.02340426
3.75	0.02340426
3.766667	0.02340426
3.783333	0.02340426
3.8	0.02340426
3.816667	0.02340426
3.833333	0.02340426
3.85	0.02340426
3.866667	0.02340426
3.883333	0.0187234
3.9	0.02340426
3.916667	0.02340426
3.933333	0.02340426
3.95	0.02340426
3.966667	0.0187234
3.983333	0.0187234
4	0.0187234
4.016667	0.0187234
4.033333	0.02340426
4.05	0.02340426
4.066667	0.0187234
4.083333	0.0187234
4.1	0.0187234
4.116667	0.0187234
4.133333	0.0187234
4.15	0.02340426
4.166667	0.02340426
4.183333	0.02340426
4.2	0.0187234
4.216667	0.02340426
4.233333	0.02340426
4.25	0.02340426
4.266667	0.0187234
4.283333	0.0187234
4.3	0.0187234
4.316667	0.0187234
4.333333	0.02340426
4.35	0.02340426
4.366667	0.02340426
4.383333	0.02340426
4.4	0.02340426
4.416667	0.02340426
4.433333	0.02340426
4.45	0.02340426
4.466667	0.0187234
4.483333	0.0187234
4.5	0.0187234
4.516667	0.0187234
4.533333	0.0187234
4.55	0.0187234
4.566667	0.0187234
4.583333	0.0187234
4.6	0.0187234
4.616667	0.0187234
4.633333	0.0187234
4.65	0.0187234
4.666667	0.0187234
4.683333	0.0187234
4.7	0.0187234
4.716667	0.0187234
4.733333	0.0187234
4.75	0.0187234
4.766667	0.0187234
4.783333	0.0187234
4.8	0.0187234
4.816667	0.0187234
4.833333	0.0187234
4.85	0.02340426
4.866667	0.0187234
4.883333	0.0187234
4.9	0.0187234
4.916667	0.0187234
4.933333	0.0187234
4.95	0.0187234
4.966667	0.0187234
4.983333	0.0187234
5	0.0187234
5.016667	0.0187234
5.033333	0.0187234
5.05	0.02340426
5.066667	0.0187234
5.083333	0.0187234
5.1	0.0187234
5.116667	0.0187234
5.133333	0.0187234
5.15	0.0187234
5.166667	0.0187234
5.183333	0.0187234
5.2	0.0187234
5.216667	0.0187234
5.233333	0.0187234
5.25	0.0187234
5.266667	0.0187234
5.283333	0.0187234
5.3	0.0187234
5.316667	0.0187234
5.333333	0.0187234
5.35	0.0187234
5.366667	0.0187234
5.383333	0.0187234
5.4	0.0187234
5.416667	0.0187234
5.433333	0.0187234
5.45	0.0187234
5.466667	0.0187234
5.483333	0.0187234
5.5	0.0187234
5.516667	0.0187234
5.533333	0.0187234
5.55	0.0187234
5.566667	0.0187234
5.583333	0.0187234
5.6	0.0187234
5.616667	0.0187234
5.633333	0.0187234
5.65	0.0187234
5.666667	0.0187234
5.683333	0.0187234
5.7	0.0187234
5.716667	0.0187234
5.733333	0.0187234
5.75	0.0187234
5.766667	0.0187234
5.783333	0.0187234
5.8	0.0187234
5.816667	0.0187234
5.833333	0.0187234
5.85	0.0187234
5.866667	0.0187234
5.883333	0.0187234
5.9	0.0187234
5.916667	0.0187234
5.933333	0.0187234
5.95	0.0187234
5.966667	0.0187234
5.983333	0.0187234
6	0.0187234
6.016667	0.0187234
6.033333	0.0187234
6.05	0.0187234
6.066667	0.0187234
6.083333	0.0187234
6.1	0.0187234
6.116667	0.0187234
6.133333	0.0187234
6.15	0.0187234
6.166667	0.0187234
6.183333	0.01404255
6.2	0.01404255
6.216667	0.01404255
6.233333	0.01404255
6.25	0.0187234
6.266667	0.01404255
6.283333	0.01404255
6.3	0.01404255
6.316667	0.01404255
6.333333	0.01404255
6.35	0.01404255
6.366667	0.01404255
6.383333	0.01404255
6.4	0.01404255
6.416667	0.01404255
6.433333	0.01404255
6.45	0.01404255
6.466667	0.01404255
6.483333	0.01404255
6.5	0.01404255
6.516667	0.01404255
6.533333	0.01404255
6.55	0.01404255
6.566667	0.01404255
6.583333	0.01404255
6.6	0.01404255
6.616667	0.01404255
6.633333	0.01404255
6.65	0.01404255
6.666667	0.01404255
6.683333	0.009361702
6.7	0.009361702
6.716667	0.009361702
6.733333	0.01404255
6.75	0.01404255
6.766667	0.01404255
6.783333	0.01404255
6.8	0.01404255
6.816667	0.01404255
6.833333	0.01404255
6.85	0.01404255
6.866667	0.01404255
6.883333	0.01404255
6.9	0.01404255
6.916667	0.01404255
6.933333	0.01404255
6.95	0.01404255
6.966667	0.01404255
6.983333	0.01404255
7	0.01404255
7.016667	0.01404255
7.033333	0.01404255
7.05	0.01404255
7.066667	0.01404255
7.083333	0.01404255
7.1	0.01404255
7.116667	0.01404255
7.133333	0.01404255
7.15	0.01404255
7.166667	0.01404255
7.183333	0.01404255
7.2	0.01404255
7.216667	0.01404255
7.233333	0.01404255
7.25	0.0187234
7.266667	0.0187234
7.283333	0.0187234
7.3	0.0187234
7.316667	0.02340426
7.333333	0.02340426
7.35	0.03276596
7.366667	0.03744681
7.383333	0.04680851
7.4	0.06085106
7.416667	0.08425532
7.433333	0.1076596
7.45	0.1404255
7.466667	0.1825532
7.483333	0.2293617
7.5	0.2948936
7.516667	0.3697872
7.533333	0.4634042
7.55	0.5710638
7.566667	0.6927659
7.583333	0.8331915
7.6	0.9923404
7.616667	1.174894
7.633333	1.366808
7.65	1.582128
7.666667	1.802128
7.683333	2.040851
7.7	2.293617
7.716667	2.546383
7.733333	2.808511
7.75	3.065957
7.766667	3.318723
7.783333	3.566808
7.8	3.805532
7.816667	4.020851
7.833333	4.226808
7.85	4.409362
7.866667	4.56383
7.883333	4.699574
7.9	4.807234
7.916667	4.891489
7.933333	4.95234
7.95	4.989787
7.966667	4.999149
7.983333	4.989787
8	4.961702
8.016667	4.914894
8.033333	4.849362
8.05	4.774468
8.066667	4.685532
8.083333	4.582553
8.1	4.470213
8.116667	4.353191
8.133333	4.226808
8.15	4.100425
8.166667	3.969362
8.183333	3.833617
8.2	3.693191
8.216667	3.557447
8.233333	3.421702
8.25	3.281277
8.266667	3.145532
8.283333	3.014468
8.3	2.878723
8.316667	2.74766
8.333333	2.616596
8.35	2.490213
8.366667	2.368511
8.383333	2.246808
8.4	2.129787
8.416667	2.017447
8.433333	1.909787
8.45	1.806808
8.466667	1.708511
8.483333	1.614894
8.5	1.521277
8.516667	1.437021
8.533333	1.357447
8.55	1.287234
8.566667	1.217021
8.583333	1.151489
8.6	1.090638
8.616667	1.034468
8.633333	0.9829787
8.65	0.9361702
8.666667	0.8893617
8.683333	0.8519149
8.7	0.8144681
8.716667	0.7817021
8.733333	0.7489362
8.75	0.7208511
8.766667	0.6974468
8.783333	0.6740425
8.8	0.6506383
8.816667	0.6319149
8.833333	0.6131915
8.85	0.5991489
8.866667	0.5851064
8.883333	0.5710638
8.9	0.5570213
8.916667	0.5476596
8.933333	0.533617
8.95	0.5242553
8.966667	0.5148936
8.983333	0.5055319
9	0.4961702
9.016667	0.4914894
9.033333	0.4821277
9.05	0.4774468
9.066667	0.472766
9.083333	0.4634042
9.1	0.4587234
9.116667	0.4540425
9.133333	0.4493617
9.15	0.4493617
9.166667	0.4446808
9.183333	0.44
9.2	0.44
9.216667	0.44
9.233333	0.4353191
9.25	0.4353191
9.266667	0.4353191
9.283333	0.4353191
9.3	0.4353191
9.316667	0.4353191
9.333333	0.44
9.35	0.44
9.366667	0.44
9.383333	0.4446808
9.4	0.4493617
9.416667	0.4493617
9.433333	0.4540425
9.45	0.4587234
9.466667	0.4587234
9.483333	0.4587234
9.5	0.4634042
9.516667	0.4680851
9.533333	0.4680851
9.55	0.472766
9.566667	0.472766
9.583333	0.4680851
9.6	0.4634042
9.616667	0.4587234
9.633333	0.4446808
9.65	0.4212766
9.666667	0.3791489
9.683333	0.3182979
9.7	0.2340426
9.716667	0.1217021
9.733333	-0.02340426
9.75	-0.2059574
9.766667	-0.4259574
9.783333	-0.6740425
9.8	-0.9455319
9.816667	-1.231064
9.833333	-1.525957
9.85	-1.81617
9.866667	-2.101702
9.883333	-2.373191
9.9	-2.635319
9.916667	-2.897447
9.933333	-3.173617
9.95	-3.477872
9.966667	-3.833617
9.983333	-4.259574
10	-4.765106
10.01667	-5.33617
10.03333	-5.963404
10.05	-6.6
10.06667	-7.20383
10.08333	-7.723404
10.1	-8.125957
10.11667	-8.374042
10.13333	-8.467659
10.15	-8.41617
10.16667	-8.233617
10.18333	-7.948085
10.2	-7.59234
10.21667	-7.185106
10.23333	-6.759149
10.25	-6.32383
10.26667	-5.897872
10.28333	-5.495319
10.3	-5.11617
10.31667	-4.760425
10.33333	-4.437447
10.35	-4.142553
10.36667	-3.875745
10.38333	-3.641702
10.4	-3.426383
10.41667	-3.234468
10.43333	-3.065957
10.45	-2.906808
10.46667	-2.771064
10.48333	-2.644681
10.5	-2.52766
10.51667	-2.42
10.53333	-2.31234
10.55	-2.209362
10.56667	-2.106383
10.58333	-2.008085
10.6	-1.909787
10.61667	-1.811489
10.63333	-1.708511
10.65	-1.610213
10.66667	-1.511915
10.68333	-1.418298
10.7	-1.32
10.71667	-1.226383
10.73333	-1.132766
10.75	-1.04383
10.76667	-0.9548936
10.78333	-0.8706383
10.8	-0.7910638
10.81667	-0.7161702
10.83333	-0.6506383
10.85	-0.5897872
10.86667	-0.5382979
10.88333	-0.4961702
10.9	-0.4587234
10.91667	-0.4259574
10.93333	-0.4025532
10.95	-0.3838298
10.96667	-0.3697872
10.98333	-0.3604255
11	-0.3557447
11.01667	-0.3510638
11.03333	-0.346383
11.05	-0.3510638
11.06667	-0.3557447
11.08333	-0.3604255
11.1	-0.3604255
11.11667	-0.3697872
11.13333	-0.3744681
11.15	-0.3791489
11.16667	-0.3838298
11.18333	-0.3885106
11.2	-0.3931915
11.21667	-0.3978723
11.23333	-0.4025532
11.25	-0.4025532
11.26667	-0.407234
11.28333	-0.407234
11.3	-0.407234
11.31667	-0.407234
11.33333	-0.4025532
11.35	-0.4025532
11.36667	-0.3978723
11.38333	-0.3931915
11.4	-0.3885106
11.41667	-0.3838298
11.43333	-0.3791489
11.45	-0.3697872
11.46667	-0.3651064
11.48333	-0.3604255
11.5	-0.3604255
11.51667	-0.3557447
11.53333	-0.3510638
11.55	-0.3510638
11.56667	-0.3510638
11.58333	-0.3557447
11.6	-0.3651064
11.61667	-0.3791489
11.63333	-0.3978723
11.65	-0.4212766
11.66667	-0.4540425
11.68333	-0.4961702
11.7	-0.5429787
11.71667	-0.6038298
11.73333	-0.6646808
11.75	-0.7302128
11.76667	-0.8051064
11.78333	-0.8753191
11.8	-0.9455319
11.81667	-1.006383
11.83333	-1.067234
11.85	-1.114043
11.86667	-1.15617
11.88333	-1.184255
11.9	-1.202979
11.91667	-1.21234
11.93333	-1.21234
11.95	-1.20766
11.96667	-1.193617
11.98333	-1.174894
12	-1.151489
12.01667	-1.128085
12.03333	-1.104681
12.05	-1.076596
12.06667	-1.053191
12.08333	-1.029787
12.1	-1.011064
12.11667	-0.9923404
12.13333	-0.9782979
12.15	-0.9642553
12.16667	-0.9595745
12.18333	-0.9548936
12.2	-0.9548936
12.21667	-0.9595745
12.23333	-0.9642553
12.25	-0.973617
12.26667	-0.9829787
12.28333	-0.9923404
12.3	-1.001702
12.31667	-1.006383
12.33333	-1.011064
12.35	-1.011064
12.36667	-1.011064
12.38333	-1.006383
12.4	-0.9923404
12.41667	-0.9782979
12.43333	-0.9595745
12.45	-0.9361702
12.46667	-0.9127659
12.48333	-0.8846808
12.5	-0.8565957
12.51667	-0.8285106
12.53333	-0.7957447
12.55	-0.7629787
12.56667	-0.7302128
12.58333	-0.6974468
12.6	-0.6646808
12.61667	-0.6319149
12.63333	-0.5991489
12.65	-0.5710638
12.66667	-0.5429787
12.68333	-0.5148936
12.7	-0.4868085
12.71667	-0.4634042
12.73333	-0.4353191
12.75	-0.4119149
12.76667	-0.3931915
12.78333	-0.3744681
12.8	-0.3510638
12.81667	-0.3323404
12.83333	-0.3182979
12.85	-0.2995745
12.86667	-0.2855319
12.88333	-0.2761702
12.9	-0.2621277
12.91667	-0.2480851
12.93333	-0.2387234
12.95	-0.2246808
12.96667	-0.2153191
12.98333	-0.2106383
13	-0.2012766
13.01667	-0.1919149
13.03333	-0.1825532
13.05	-0.1731915
13.06667	-0.1685106
13.08333	-0.1638298
13.1	-0.1544681
13.11667	-0.1497872
13.13333	-0.1451064
13.15	-0.1357447
13.16667	-0.1310638
13.18333	-0.126383
13.2	-0.1217021
13.21667	-0.1217021
13.23333	-0.1123404
13.25	-0.1076596
13.26667	-0.1029787
13.28333	-0.1029787
13.3	-0.09829787
13.31667	-0.09829787
13.33333	-0.09361702
13.35	-0.08893617
13.36667	-0.08425532
13.38333	-0.08425532
13.4	-0.07957447
13.41667	-0.07957447
13.43333	-0.07489362
13.45	-0.07489362
13.46667	-0.07021277
13.48333	-0.07021277
13.5	-0.07021277
13.51667	-0.06553191
13.53333	-0.06553191
13.55	-0.06085106
13.56667	-0.06085106
13.58333	-0.06085106
13.6	-0.06085106
13.61667	-0.05617021
13.63333	-0.05617021
13.65	-0.05148936
13.66667	-0.05148936
13.68333	-0.05148936
13.7	-0.05148936
13.71667	-0.05148936
13.73333	-0.05148936
13.75	-0.05148936
13.76667	-0.04680851
13.78333	-0.04680851
13.8	-0.04680851
13.81667	-0.04680851
13.83333	-0.04680851
13.85	-0.04680851
13.86667	-0.04680851
13.88333	-0.04680851
13.9	-0.04680851
13.91667	-0.04680851
13.93333	-0.04680851
13.95	-0.04680851
13.96667	-0.04680851
13.98333	-0.04680851
14	-0.04680851
14.01667	-0.04680851
14.03333	-0.04680851
14.05	-0.04680851
14.06667	-0.04680851
14.08333	-0.04680851
14.1	-0.04680851
14.11667	-0.04680851
14.13333	-0.04680851
14.15	-0.04680851
14.16667	-0.05148936
14.18333	-0.05148936
14.2	-0.05148936
14.21667	-0.05148936
14.23333	-0.04680851
14.25	-0.04680851
14.26667	-0.05148936
14.28333	-0.05148936
14.3	-0.05148936
14.31667	-0.05148936
14.33333	-0.05148936
14.35	-0.04680851
14.36667	-0.04680851
14.38333	-0.04680851
14.4	-0.04680851
14.41667	-0.04680851
14.43333	-0.04680851
14.45	-0.04680851
14.46667	-0.04680851
14.48333	-0.04680851
14.5	-0.04680851
14.51667	-0.04680851
14.53333	-0.04680851
14.55	-0.04680851
14.56667	-0.04212766
14.58333	-0.04212766
14.6	-0.04212766
14.61667	-0.04212766
14.63333	-0.04212766
14.65	-0.04212766
14.66667	-0.04212766
14.68333	-0.04212766
14.7	-0.04212766
14.71667	-0.03744681
14.73333	-0.03744681
14.75	-0.03744681
14.76667	-0.03744681
14.78333	-0.03744681
14.8	-0.03276596
14.81667	-0.03276596
14.83333	-0.03276596
14.85	-0.03276596
14.86667	-0.03276596
14.88333	-0.03276596
14.9	-0.03276596
14.91667	-0.02808511
14.93333	-0.02808511
14.95	-0.02808511
14.96667	-0.02808511
14.98333	-0.02808511
15	-0.02340426
15.01667	-0.02340426
15.03333	-0.02340426
15.05	-0.02340426
15.06667	-0.02340426
15.08333	-0.02340426
15.1	-0.0187234
15.11667	-0.0187234
15.13333	-0.0187234
15.15	-0.0187234
15.16667	-0.0187234
15.18333	-0.01404255
15.2	-0.01404255
15.21667	-0.01404255
15.23333	-0.01404255
15.25	-0.01404255
15.26667	-0.01404255
15.28333	-0.01404255
15.3	-0.01404255
15.31667	-0.009361702
15.33333	-0.009361702
15.35	-0.009361702
15.36667	-0.009361702
15.38333	-0.009361702
15.4	-0.009361702
15.41667	-0.009361702
15.43333	-0.009361702
15.45	-0.004680851
15.46667	-0.004680851
15.48333	-0.004680851
15.5	-0.004680851
15.51667	-0.004680851
15.53333	-0.004680851
15.55	-0.004680851
15.56667	-0.004680851
15.58333	-0.004680851
15.6	0
15.61667	0
15.63333	0
15.65	0
15.66667	0
15.68333	0
15.7	0
15.71667	0
15.73333	0
15.75	0.004680851
15.76667	0.004680851
15.78333	0.004680851
15.8	0.004680851
15.81667	0.004680851
15.83333	0.004680851
15.85	0.004680851
15.86667	0.004680851
15.88333	0.004680851
15.9	0.004680851
15.91667	0.004680851
15.93333	0.004680851
15.95	0.004680851
15.96667	0.004680851
15.98333	0.004680851
16	0.004680851
16.01667	0.004680851
16.03333	0.004680851
16.05	0.009361702
16.06667	0.004680851
16.08333	0.004680851
16.1	0.004680851
16.11667	0.004680851
16.13333	0.009361702
16.15	0.009361702
16.16667	0.009361702
16.18333	0.009361702
16.2	0.009361702
16.21667	0.009361702
16.23333	0.009361702
16.25	0.009361702
16.26667	0.009361702
16.28333	0.009361702
16.3	0.009361702
16.31667	0.009361702
16.33333	0.009361702
16.35	0.009361702
16.36667	0.009361702
16.38333	0.009361702
16.4	0.009361702
16.41667	0.009361702
16.43333	0.009361702
16.45	0.01404255
16.46667	0.009361702
16.48333	0.009361702
16.5	0.009361702
16.51667	0.009361702
16.53333	0.01404255
16.55	0.01404255
16.56667	0.01404255
16.58333	0.01404255
16.6	0.01404255
16.61667	0.01404255
16.63333	0.01404255
16.65	0.01404255
16.66667	0.01404255
16.68333	0.01404255
16.7	0.01404255
16.71667	0.01404255
16.73333	0.01404255
16.75	0.01404255
16.76667	0.01404255
16.78333	0.01404255
16.8	0.01404255
16.81667	0.01404255
16.83333	0.01404255
16.85	0.0187234
16.86667	0.01404255
16.88333	0.01404255
16.9	0.01404255
16.91667	0.01404255
16.93333	0.01404255
16.95	0.01404255
16.96667	0.01404255
16.98333	0.01404255
17	0.01404255
17.01667	0.01404255
17.03333	0.01404255
17.05	0.0187234
17.06667	0.01404255
17.08333	0.01404255
17.1	0.01404255
17.11667	0.01404255
17.13333	0.01404255
17.15	0.01404255
17.16667	0.01404255
17.18333	0.01404255
17.2	0.01404255
17.21667	0.01404255
17.23333	0.01404255
17.25	0.01404255
17.26667	0.01404255
17.28333	0.01404255
17.3	0.01404255
17.31667	0.01404255
17.33333	0.01404255
17.35	0.01404255
17.36667	0.01404255
17.38333	0.01404255
17.4	0.01404255
17.41667	0.01404255
17.43333	0.01404255
17.45	0.01404255
17.46667	0.01404255
17.48333	0.01404255
17.5	0.01404255
17.51667	0.01404255
17.53333	0.01404255
17.55	0.01404255
17.56667	0.01404255
17.58333	0.01404255
17.6	0.01404255
17.61667	0.01404255
17.63333	0.01404255
17.65	0.01404255
17.66667	0.01404255
17.68333	0.009361702
17.7	0.009361702
17.71667	0.009361702
17.73333	0.01404255
17.75	0.01404255
17.76667	0.009361702
17.78333	0.009361702
17.8	0.009361702
17.81667	0.009361702
17.83333	0.01404255
17.85	0.01404255
17.86667	0.009361702
17.88333	0.009361702
17.9	0.009361702
17.91667	0.009361702
17.93333	0.009361702
17.95	0.009361702
17.96667	0.009361702
17.98333	0.009361702
18	0.009361702
18.01667	0.009361702
18.03333	0.009361702
18.05	0.009361702
18.06667	0.009361702
18.08333	0.009361702
18.1	0.009361702
18.11667	0.009361702
18.13333	0.009361702
18.15	0.009361702
18.16667	0.009361702
18.18333	0.009361702
18.2	0.009361702
18.21667	0.009361702
18.23333	0.009361702
18.25	0.009361702
18.26667	0.009361702
18.28333	0.009361702
18.3	0.009361702
18.31667	0.009361702
18.33333	0.009361702
18.35	0.009361702
18.36667	0.009361702
18.38333	0.009361702
18.4	0.009361702
18.41667	0.009361702
18.43333	0.009361702
18.45	0.009361702
18.46667	0.009361702
18.48333	0.004680851
18.5	0.004680851
18.51667	0.004680851
18.53333	0.004680851
18.55	0.004680851
18.56667	0.004680851
18.58333	0.004680851
18.6	0.004680851
18.61667	0.004680851
18.63333	0.004680851
18.65	0.009361702
18.66667	0.004680851
18.68333	0.004680851
18.7	0.004680851
18.71667	0.004680851
18.73333	0.004680851
18.75	0.004680851
18.76667	0.004680851
18.78333	0.004680851
18.8	0.004680851
18.81667	0.004680851
18.83333	0.004680851
18.85	0.004680851
18.86667	0.004680851
18.88333	0.004680851
18.9	0.004680851
18.91667	0.004680851
18.93333	0.004680851
18.95	0.004680851
18.96667	0.004680851
18.98333	0.004680851
19	0.004680851
19.01667	0.004680851
19.03333	0.004680851
19.05	0.004680851
19.06667	0.004680851
19.08333	0.004680851
19.1	0.004680851
19.11667	0.004680851
19.13333	0.004680851
19.15	0.004680851
19.16667	0.004680851
19.18333	0.004680851
19.2	0.004680851
19.21667	0.004680851
19.23333	0.004680851
19.25	0.004680851
19.26667	0.004680851
19.28333	0.004680851
19.3	0.004680851
19.31667	0.004680851
19.33333	0.004680851
19.35	0.004680851
19.36667	0.004680851
19.38333	0.004680851
19.4	0.004680851
19.41667	0.004680851
19.43333	0.004680851
19.45	0.004680851
19.46667	0.004680851
19.48333	0.004680851
19.5	0.004680851
19.51667	0.004680851
19.53333	0.004680851
19.55	0.009361702
19.56667	0.004680851
19.58333	0.004680851
19.6	0.004680851
19.61667	0.004680851
19.63333	0.004680851
19.65	0.009361702
19.66667	0.004680851
19.68333	0.004680851
19.7	0.004680851
19.71667	0.004680851
19.73333	0.004680851
19.75	0.004680851
19.76667	0.004680851
19.78333	0.004680851
19.8	0.004680851
19.81667	0.004680851
19.83333	0.004680851
19.85	0.004680851
19.86667	0.004680851
19.88333	0.004680851
19.9	0.004680851
19.91667	0.004680851
19.93333	0.004680851
19.95	0.004680851
19.96667	0.004680851
19.98333	0.004680851
20	0.004680851
