"Sample Set Id"	1752
"Sample Set Name"	"sad100124HPA"
"System Name"	"System III"
"Instrument Method Name"	"System 3_RI"
"SampleName"	"PMMA459kDa"
"Injection"	1
"Vial"	"9"
"Channel"	"410 "
0.01666667	0.009361702
0.03333333	0
0.05	0
0.06666667	0
0.08333333	0
0.1	0
0.1166667	0
0.1333333	0
0.15	0
0.1666667	0
0.1833333	0
0.2	0
0.2166667	0
0.2333333	0
0.25	0
0.2666667	0.004680851
0.2833333	0.004680851
0.3	0.004680851
0.3166667	0.004680851
0.3333333	0.004680851
0.35	0.004680851
0.3666667	0.004680851
0.3833333	0.004680851
0.4	0.004680851
0.4166667	0.004680851
0.4333333	0.009361702
0.45	0.009361702
0.4666667	0.009361702
0.4833333	0.009361702
0.5	0.009361702
0.5166667	0.009361702
0.5333333	0.009361702
0.55	0.009361702
0.5666667	0.009361702
0.5833333	0.009361702
0.6	0.009361702
0.6166667	0.009361702
0.6333333	0.009361702
0.65	0.009361702
0.6666667	0.009361702
0.6833333	0.009361702
0.7	0.009361702
0.7166667	0.009361702
0.7333333	0.01404255
0.75	0.01404255
0.7666667	0.01404255
0.7833333	0.01404255
0.8	0.01404255
0.8166667	0.01404255
0.8333333	0.01404255
0.85	0.01404255
0.8666667	0.01404255
0.8833333	0.01404255
0.9	0.01404255
0.9166667	0.01404255
0.9333333	0.01404255
0.95	0.01404255
0.9666667	0.01404255
0.9833333	0.01404255
1	0.01404255
1.016667	0.01404255
1.033333	0.01404255
1.05	0.01404255
1.066667	0.01404255
1.083333	0.01404255
1.1	0.01404255
1.116667	0.01404255
1.133333	0.01404255
1.15	0.01404255
1.166667	0.01404255
1.183333	0.01404255
1.2	0.01404255
1.216667	0.01404255
1.233333	0.01404255
1.25	0.01404255
1.266667	0.01404255
1.283333	0.01404255
1.3	0.01404255
1.316667	0.01404255
1.333333	0.01404255
1.35	0.01404255
1.366667	0.01404255
1.383333	0.01404255
1.4	0.01404255
1.416667	0.01404255
1.433333	0.01404255
1.45	0.01404255
1.466667	0.01404255
1.483333	0.01404255
1.5	0.01404255
1.516667	0.01404255
1.533333	0.01404255
1.55	0.01404255
1.566667	0.01404255
1.583333	0.01404255
1.6	0.01404255
1.616667	0.01404255
1.633333	0.01404255
1.65	0.01404255
1.666667	0.01404255
1.683333	0.009361702
1.7	0.009361702
1.716667	0.01404255
1.733333	0.009361702
1.75	0.01404255
1.766667	0.009361702
1.783333	0.009361702
1.8	0.009361702
1.816667	0.01404255
1.833333	0.01404255
1.85	0.01404255
1.866667	0.009361702
1.883333	0.009361702
1.9	0.009361702
1.916667	0.009361702
1.933333	0.009361702
1.95	0.009361702
1.966667	0.009361702
1.983333	0.009361702
2	0.009361702
2.016667	0.009361702
2.033333	0.009361702
2.05	0.009361702
2.066667	0.009361702
2.083333	0.009361702
2.1	0.009361702
2.116667	0.009361702
2.133333	0.009361702
2.15	0.009361702
2.166667	0.009361702
2.183333	0.009361702
2.2	0.009361702
2.216667	0.009361702
2.233333	0.009361702
2.25	0.009361702
2.266667	0.009361702
2.283333	0.009361702
2.3	0.009361702
2.316667	0.009361702
2.333333	0.009361702
2.35	0.009361702
2.366667	0.009361702
2.383333	0.009361702
2.4	0.009361702
2.416667	0.009361702
2.433333	0.009361702
2.45	0.009361702
2.466667	0.009361702
2.483333	0.009361702
2.5	0.004680851
2.516667	0.004680851
2.533333	0.004680851
2.55	0.004680851
2.566667	0.004680851
2.583333	0.004680851
2.6	0.004680851
2.616667	0.004680851
2.633333	0.004680851
2.65	0.009361702
2.666667	0.004680851
2.683333	0.004680851
2.7	0.004680851
2.716667	0.004680851
2.733333	0.004680851
2.75	0.004680851
2.766667	0.004680851
2.783333	0.004680851
2.8	0.004680851
2.816667	0.004680851
2.833333	0.004680851
2.85	0.004680851
2.866667	0.004680851
2.883333	0.004680851
2.9	0.004680851
2.916667	0.004680851
2.933333	0.004680851
2.95	0.004680851
2.966667	0.004680851
2.983333	0.004680851
3	0.004680851
3.016667	0.004680851
3.033333	0.004680851
3.05	0.004680851
3.066667	0.004680851
3.083333	0
3.1	0
3.116667	0.004680851
3.133333	0.004680851
3.15	0.004680851
3.166667	0
3.183333	0
3.2	0
3.216667	0.004680851
3.233333	0.004680851
3.25	0.004680851
3.266667	0
3.283333	0
3.3	0
3.316667	0
3.333333	0
3.35	0
3.366667	0
3.383333	0
3.4	0
3.416667	0
3.433333	0
3.45	0.004680851
3.466667	0
3.483333	0
3.5	0
3.516667	0
3.533333	0
3.55	0
3.566667	0
3.583333	0
3.6	0
3.616667	0
3.633333	0
3.65	0
3.666667	0
3.683333	0
3.7	0
3.716667	0
3.733333	0
3.75	0
3.766667	0
3.783333	0
3.8	0
3.816667	0
3.833333	0
3.85	0
3.866667	0
3.883333	0
3.9	0
3.916667	0
3.933333	0
3.95	0
3.966667	0
3.983333	0
4	0
4.016667	0
4.033333	0
4.05	0.004680851
4.066667	0
4.083333	0
4.1	0
4.116667	0
4.133333	0
4.15	0
4.166667	0
4.183333	0
4.2	0
4.216667	0
4.233333	0.004680851
4.25	0.004680851
4.266667	0
4.283333	0
4.3	0
4.316667	0
4.333333	0
4.35	0.004680851
4.366667	0
4.383333	0
4.4	0.004680851
4.416667	0.004680851
4.433333	0.004680851
4.45	0.004680851
4.466667	0.004680851
4.483333	0
4.5	0
4.516667	0
4.533333	0
4.55	0.004680851
4.566667	0
4.583333	0
4.6	0
4.616667	0
4.633333	0
4.65	0.004680851
4.666667	0
4.683333	0
4.7	0
4.716667	0
4.733333	0
4.75	0
4.766667	0
4.783333	0
4.8	0
4.816667	0
4.833333	0
4.85	0
4.866667	0
4.883333	0
4.9	0
4.916667	0
4.933333	0
4.95	0.004680851
4.966667	0.004680851
4.983333	0.004680851
5	0.004680851
5.016667	0.004680851
5.033333	0.004680851
5.05	0.004680851
5.066667	0.004680851
5.083333	0.004680851
5.1	0.004680851
5.116667	0.009361702
5.133333	0.009361702
5.15	0.009361702
5.166667	0.009361702
5.183333	0.009361702
5.2	0.009361702
5.216667	0.009361702
5.233333	0.009361702
5.25	0.01404255
5.266667	0.009361702
5.283333	0.009361702
5.3	0.009361702
5.316667	0.009361702
5.333333	0.009361702
5.35	0.009361702
5.366667	0.009361702
5.383333	0.009361702
5.4	0.009361702
5.416667	0.009361702
5.433333	0.009361702
5.45	0.009361702
5.466667	0.009361702
5.483333	0.009361702
5.5	0.009361702
5.516667	0.009361702
5.533333	0.009361702
5.55	0.009361702
5.566667	0.009361702
5.583333	0.009361702
5.6	0.009361702
5.616667	0.009361702
5.633333	0.009361702
5.65	0.009361702
5.666667	0.009361702
5.683333	0.009361702
5.7	0.009361702
5.716667	0.004680851
5.733333	0.009361702
5.75	0.009361702
5.766667	0.009361702
5.783333	0.009361702
5.8	0.009361702
5.816667	0.009361702
5.833333	0.01404255
5.85	0.0187234
5.866667	0.02808511
5.883333	0.03744681
5.9	0.05617021
5.916667	0.08425532
5.933333	0.1217021
5.95	0.1731915
5.966667	0.2434043
5.983333	0.3370213
6	0.4587234
6.016667	0.6178723
6.033333	0.8191489
6.05	1.067234
6.066667	1.362128
6.083333	1.708511
6.1	2.111064
6.116667	2.555745
6.133333	3.028511
6.15	3.524681
6.166667	4.011489
6.183333	4.484255
6.2	4.933617
6.216667	5.340851
6.233333	5.696596
6.25	6.000851
6.266667	6.253617
6.283333	6.459574
6.3	6.637447
6.316667	6.782553
6.333333	6.894894
6.35	6.98383
6.366667	7.049362
6.383333	7.086808
6.4	7.110213
6.416667	7.110213
6.433333	7.09617
6.45	7.068085
6.466667	7.030638
6.483333	6.979149
6.5	6.922979
6.516667	6.862128
6.533333	6.796596
6.55	6.731064
6.566667	6.665532
6.583333	6.590638
6.6	6.511064
6.616667	6.426808
6.633333	6.337872
6.65	6.239574
6.666667	6.127234
6.683333	6.000851
6.7	5.855745
6.716667	5.701277
6.733333	5.537447
6.75	5.364255
6.766667	5.186383
6.783333	4.999149
6.8	4.797872
6.816667	4.591915
6.833333	4.376596
6.85	4.147234
6.866667	3.913191
6.883333	3.669787
6.9	3.417021
6.916667	3.164255
6.933333	2.920851
6.95	2.691489
6.966667	2.480851
6.983333	2.284255
7	2.106383
7.016667	1.947234
7.033333	1.806808
7.05	1.680426
7.066667	1.577447
7.083333	1.48383
7.1	1.404255
7.116667	1.338723
7.133333	1.282553
7.15	1.235745
7.166667	1.198298
7.183333	1.165532
7.2	1.132766
7.216667	1.109362
7.233333	1.085957
7.25	1.062553
7.266667	1.039149
7.283333	1.015745
7.3	0.9923404
7.316667	0.9689362
7.333333	0.9502128
7.35	0.9268085
7.366667	0.9034042
7.383333	0.88
7.4	0.8612766
7.416667	0.8378723
7.433333	0.8191489
7.45	0.8051064
7.466667	0.7910638
7.483333	0.7770213
7.5	0.7676596
7.516667	0.7582979
7.533333	0.753617
7.55	0.753617
7.566667	0.7489362
7.583333	0.7489362
7.6	0.7489362
7.616667	0.753617
7.633333	0.7582979
7.65	0.7676596
7.666667	0.7723404
7.683333	0.786383
7.7	0.8004255
7.716667	0.8191489
7.733333	0.8331915
7.75	0.8565957
7.766667	0.8706383
7.783333	0.8846808
7.8	0.8987234
7.816667	0.9080851
7.833333	0.9127659
7.85	0.9174468
7.866667	0.9080851
7.883333	0.8987234
7.9	0.8846808
7.916667	0.8659574
7.933333	0.8425532
7.95	0.8144681
7.966667	0.786383
7.983333	0.753617
8	0.7208511
8.016667	0.6880851
8.033333	0.6506383
8.05	0.6178723
8.066667	0.5804255
8.083333	0.5476596
8.1	0.5148936
8.116667	0.4821277
8.133333	0.4493617
8.15	0.4212766
8.166667	0.3931915
8.183333	0.3651064
8.2	0.3417021
8.216667	0.3182979
8.233333	0.2948936
8.25	0.2714894
8.266667	0.252766
8.283333	0.2293617
8.3	0.2106383
8.316667	0.1919149
8.333333	0.1778723
8.35	0.1591489
8.366667	0.1451064
8.383333	0.126383
8.4	0.1123404
8.416667	0.09829787
8.433333	0.08425532
8.45	0.07489362
8.466667	0.06553191
8.483333	0.05148936
8.5	0.04212766
8.516667	0.03744681
8.533333	0.02808511
8.55	0.02340426
8.566667	0.0187234
8.583333	0.01404255
8.6	0.01404255
8.616667	0.009361702
8.633333	0.009361702
8.65	0.004680851
8.666667	0.004680851
8.683333	0
8.7	0
8.716667	0
8.733333	0
8.75	0
8.766667	-0.004680851
8.783333	-0.004680851
8.8	-0.004680851
8.816667	-0.004680851
8.833333	-0.004680851
8.85	-0.009361702
8.866667	-0.009361702
8.883333	-0.009361702
8.9	-0.01404255
8.916667	-0.01404255
8.933333	-0.01404255
8.95	-0.01404255
8.966667	-0.01404255
8.983333	-0.0187234
9	-0.0187234
9.016667	-0.0187234
9.033333	-0.0187234
9.05	-0.0187234
9.066667	-0.0187234
9.083333	-0.0187234
9.1	-0.0187234
9.116667	-0.0187234
9.133333	-0.0187234
9.15	-0.0187234
9.166667	-0.0187234
9.183333	-0.0187234
9.2	-0.0187234
9.216667	-0.0187234
9.233333	-0.0187234
9.25	-0.0187234
9.266667	-0.0187234
9.283333	-0.02340426
9.3	-0.02340426
9.316667	-0.02340426
9.333333	-0.02340426
9.35	-0.02340426
9.366667	-0.02340426
9.383333	-0.02340426
9.4	-0.02340426
9.416667	-0.02340426
9.433333	-0.02340426
9.45	-0.02340426
9.466667	-0.02808511
9.483333	-0.02808511
9.5	-0.03276596
9.516667	-0.03276596
9.533333	-0.03744681
9.55	-0.03744681
9.566667	-0.04680851
9.583333	-0.05617021
9.6	-0.07021277
9.616667	-0.1029787
9.633333	-0.1497872
9.65	-0.22
9.666667	-0.3229787
9.683333	-0.4587234
9.7	-0.6365957
9.716667	-0.847234
9.733333	-1.090638
9.75	-1.357447
9.766667	-1.628936
9.783333	-1.905106
9.8	-2.167234
9.816667	-2.401277
9.833333	-2.602553
9.85	-2.771064
9.866667	-2.892766
9.883333	-2.981702
9.9	-3.028511
9.916667	-3.042553
9.933333	-3.033191
9.95	-3.000425
9.966667	-2.948936
9.983333	-2.888085
10	-2.813191
10.01667	-2.733617
10.03333	-2.649362
10.05	-2.560426
10.06667	-2.47617
10.08333	-2.387234
10.1	-2.298298
10.11667	-2.204681
10.13333	-2.115745
10.15	-2.026808
10.16667	-1.937872
10.18333	-1.848936
10.2	-1.76
10.21667	-1.675745
10.23333	-1.59617
10.25	-1.511915
10.26667	-1.437021
10.28333	-1.366808
10.3	-1.301277
10.31667	-1.235745
10.33333	-1.174894
10.35	-1.118723
10.36667	-1.071915
10.38333	-1.025106
10.4	-0.9829787
10.41667	-0.9455319
10.43333	-0.9080851
10.45	-0.8706383
10.46667	-0.8378723
10.48333	-0.8051064
10.5	-0.7723404
10.51667	-0.7302128
10.53333	-0.6880851
10.55	-0.6412766
10.56667	-0.5897872
10.58333	-0.5382979
10.6	-0.4821277
10.61667	-0.4212766
10.63333	-0.3604255
10.65	-0.2948936
10.66667	-0.2387234
10.68333	-0.1825532
10.7	-0.1310638
10.71667	-0.08425532
10.73333	-0.04680851
10.75	-0.009361702
10.76667	0.01404255
10.78333	0.03276596
10.8	0.04680851
10.81667	0.05148936
10.83333	0.05617021
10.85	0.05617021
10.86667	0.05148936
10.88333	0.04680851
10.9	0.03744681
10.91667	0.02808511
10.93333	0.0187234
10.95	0.004680851
10.96667	-0.004680851
10.98333	-0.0187234
11	-0.02808511
11.01667	-0.04212766
11.03333	-0.05148936
11.05	-0.06085106
11.06667	-0.07021277
11.08333	-0.08425532
11.1	-0.09361702
11.11667	-0.1029787
11.13333	-0.1123404
11.15	-0.1170213
11.16667	-0.126383
11.18333	-0.1310638
11.2	-0.1310638
11.21667	-0.1310638
11.23333	-0.1310638
11.25	-0.1310638
11.26667	-0.126383
11.28333	-0.126383
11.3	-0.1170213
11.31667	-0.1123404
11.33333	-0.1029787
11.35	-0.09361702
11.36667	-0.08425532
11.38333	-0.07957447
11.4	-0.07021277
11.41667	-0.06553191
11.43333	-0.06085106
11.45	-0.05617021
11.46667	-0.05148936
11.48333	-0.05617021
11.5	-0.05617021
11.51667	-0.06085106
11.53333	-0.06553191
11.55	-0.07489362
11.56667	-0.08893617
11.58333	-0.1029787
11.6	-0.126383
11.61667	-0.1497872
11.63333	-0.187234
11.65	-0.2293617
11.66667	-0.2808511
11.68333	-0.3417021
11.7	-0.407234
11.71667	-0.4868085
11.73333	-0.566383
11.75	-0.6506383
11.76667	-0.7348936
11.78333	-0.8191489
11.8	-0.8987234
11.81667	-0.9689362
11.83333	-1.029787
11.85	-1.076596
11.86667	-1.114043
11.88333	-1.137447
11.9	-1.146808
11.91667	-1.146808
11.93333	-1.137447
11.95	-1.114043
11.96667	-1.090638
11.98333	-1.057872
12	-1.025106
12.01667	-0.9876596
12.03333	-0.9502128
12.05	-0.9127659
12.06667	-0.88
12.08333	-0.847234
12.1	-0.8191489
12.11667	-0.7910638
12.13333	-0.7723404
12.15	-0.7582979
12.16667	-0.7489362
12.18333	-0.7395745
12.2	-0.7395745
12.21667	-0.7395745
12.23333	-0.7442553
12.25	-0.753617
12.26667	-0.7629787
12.28333	-0.7723404
12.3	-0.7817021
12.31667	-0.7910638
12.33333	-0.7910638
12.35	-0.7910638
12.36667	-0.7910638
12.38333	-0.786383
12.4	-0.7770213
12.41667	-0.7629787
12.43333	-0.7489362
12.45	-0.7255319
12.46667	-0.7068085
12.48333	-0.6834042
12.5	-0.66
12.51667	-0.6319149
12.53333	-0.6085106
12.55	-0.5804255
12.56667	-0.5523404
12.58333	-0.5289362
12.6	-0.5055319
12.61667	-0.4774468
12.63333	-0.4540425
12.65	-0.4306383
12.66667	-0.407234
12.68333	-0.3885106
12.7	-0.3697872
12.71667	-0.3510638
12.73333	-0.3323404
12.75	-0.3182979
12.76667	-0.2995745
12.78333	-0.2855319
12.8	-0.2714894
12.81667	-0.2621277
12.83333	-0.2480851
12.85	-0.2387234
12.86667	-0.2246808
12.88333	-0.22
12.9	-0.2106383
12.91667	-0.2012766
12.93333	-0.1965957
12.95	-0.187234
12.96667	-0.1825532
12.98333	-0.1731915
13	-0.1685106
13.01667	-0.1638298
13.03333	-0.1591489
13.05	-0.1544681
13.06667	-0.1497872
13.08333	-0.1451064
13.1	-0.1404255
13.11667	-0.1404255
13.13333	-0.1357447
13.15	-0.1310638
13.16667	-0.126383
13.18333	-0.1217021
13.2	-0.1217021
13.21667	-0.1170213
13.23333	-0.1123404
13.25	-0.1123404
13.26667	-0.1076596
13.28333	-0.1076596
13.3	-0.1029787
13.31667	-0.1029787
13.33333	-0.09829787
13.35	-0.09829787
13.36667	-0.09361702
13.38333	-0.09361702
13.4	-0.09361702
13.41667	-0.08893617
13.43333	-0.08893617
13.45	-0.08425532
13.46667	-0.08425532
13.48333	-0.08425532
13.5	-0.08425532
13.51667	-0.08425532
13.53333	-0.07957447
13.55	-0.07957447
13.56667	-0.07957447
13.58333	-0.07957447
13.6	-0.07489362
13.61667	-0.07489362
13.63333	-0.07489362
13.65	-0.07489362
13.66667	-0.07489362
13.68333	-0.07489362
13.7	-0.07489362
13.71667	-0.07021277
13.73333	-0.07021277
13.75	-0.07021277
13.76667	-0.07021277
13.78333	-0.07021277
13.8	-0.07021277
13.81667	-0.07021277
13.83333	-0.07021277
13.85	-0.07021277
13.86667	-0.07021277
13.88333	-0.07021277
13.9	-0.07489362
13.91667	-0.07489362
13.93333	-0.07489362
13.95	-0.07489362
13.96667	-0.07489362
13.98333	-0.07489362
14	-0.07489362
14.01667	-0.07489362
14.03333	-0.07489362
14.05	-0.07489362
14.06667	-0.07489362
14.08333	-0.07489362
14.1	-0.07489362
14.11667	-0.07489362
14.13333	-0.07489362
14.15	-0.07489362
14.16667	-0.07489362
14.18333	-0.07957447
14.2	-0.07957447
14.21667	-0.07957447
14.23333	-0.07957447
14.25	-0.07957447
14.26667	-0.07957447
14.28333	-0.07957447
14.3	-0.07957447
14.31667	-0.07957447
14.33333	-0.07957447
14.35	-0.07957447
14.36667	-0.07957447
14.38333	-0.07957447
14.4	-0.07957447
14.41667	-0.07957447
14.43333	-0.07957447
14.45	-0.07957447
14.46667	-0.07957447
14.48333	-0.07957447
14.5	-0.07957447
14.51667	-0.07957447
14.53333	-0.07489362
14.55	-0.07489362
14.56667	-0.07489362
14.58333	-0.07489362
14.6	-0.07489362
14.61667	-0.07489362
14.63333	-0.07489362
14.65	-0.07021277
14.66667	-0.07021277
14.68333	-0.07021277
14.7	-0.07021277
14.71667	-0.07021277
14.73333	-0.07021277
14.75	-0.07021277
14.76667	-0.06553191
14.78333	-0.06553191
14.8	-0.06553191
14.81667	-0.06553191
14.83333	-0.06553191
14.85	-0.06553191
14.86667	-0.06085106
14.88333	-0.06085106
14.9	-0.06085106
14.91667	-0.06085106
14.93333	-0.06085106
14.95	-0.06085106
14.96667	-0.05617021
14.98333	-0.05617021
15	-0.05617021
15.01667	-0.05617021
15.03333	-0.05617021
15.05	-0.05617021
15.06667	-0.05148936
15.08333	-0.05148936
15.1	-0.05148936
15.11667	-0.05148936
15.13333	-0.05148936
15.15	-0.05148936
15.16667	-0.04680851
15.18333	-0.04680851
15.2	-0.04680851
15.21667	-0.04680851
15.23333	-0.04680851
15.25	-0.04680851
15.26667	-0.04680851
15.28333	-0.04680851
15.3	-0.04212766
15.31667	-0.04212766
15.33333	-0.04212766
15.35	-0.04212766
15.36667	-0.04212766
15.38333	-0.04212766
15.4	-0.04212766
15.41667	-0.03744681
15.43333	-0.03744681
15.45	-0.03744681
15.46667	-0.03744681
15.48333	-0.03744681
15.5	-0.03744681
15.51667	-0.03744681
15.53333	-0.03744681
15.55	-0.03276596
15.56667	-0.03276596
15.58333	-0.03276596
15.6	-0.03276596
15.61667	-0.03276596
15.63333	-0.03276596
15.65	-0.03276596
15.66667	-0.03276596
15.68333	-0.03276596
15.7	-0.03276596
15.71667	-0.03276596
15.73333	-0.02808511
15.75	-0.02808511
15.76667	-0.02808511
15.78333	-0.02808511
15.8	-0.02808511
15.81667	-0.02808511
15.83333	-0.02808511
15.85	-0.02808511
15.86667	-0.02808511
15.88333	-0.02808511
15.9	-0.02808511
15.91667	-0.02340426
15.93333	-0.02340426
15.95	-0.02340426
15.96667	-0.02340426
15.98333	-0.02340426
16	-0.02340426
16.01667	-0.02340426
16.03333	-0.02340426
16.05	-0.02340426
16.06667	-0.02340426
16.08333	-0.02340426
16.1	-0.02340426
16.11667	-0.02340426
16.13333	-0.02340426
16.15	-0.02340426
16.16667	-0.02340426
16.18333	-0.02340426
16.2	-0.02340426
16.21667	-0.02340426
16.23333	-0.02340426
16.25	-0.02340426
16.26667	-0.02340426
16.28333	-0.02340426
16.3	-0.02340426
16.31667	-0.02340426
16.33333	-0.02340426
16.35	-0.02340426
16.36667	-0.02340426
16.38333	-0.02340426
16.4	-0.02340426
16.41667	-0.02340426
16.43333	-0.02340426
16.45	-0.0187234
16.46667	-0.02340426
16.48333	-0.02340426
16.5	-0.02340426
16.51667	-0.02340426
16.53333	-0.02340426
16.55	-0.02340426
16.56667	-0.02340426
16.58333	-0.02340426
16.6	-0.02340426
16.61667	-0.02340426
16.63333	-0.0187234
16.65	-0.0187234
16.66667	-0.02340426
16.68333	-0.02340426
16.7	-0.02340426
16.71667	-0.02340426
16.73333	-0.02340426
16.75	-0.02340426
16.76667	-0.02340426
16.78333	-0.02340426
16.8	-0.02340426
16.81667	-0.02340426
16.83333	-0.02340426
16.85	-0.0187234
16.86667	-0.02340426
16.88333	-0.02340426
16.9	-0.02340426
16.91667	-0.02340426
16.93333	-0.02340426
16.95	-0.02340426
16.96667	-0.02340426
16.98333	-0.02340426
17	-0.02340426
17.01667	-0.02340426
17.03333	-0.02340426
17.05	-0.02340426
17.06667	-0.02340426
17.08333	-0.02340426
17.1	-0.02340426
17.11667	-0.02340426
17.13333	-0.02340426
17.15	-0.02340426
17.16667	-0.02340426
17.18333	-0.02340426
17.2	-0.02340426
17.21667	-0.02340426
17.23333	-0.02340426
17.25	-0.02340426
17.26667	-0.02340426
17.28333	-0.02340426
17.3	-0.02340426
17.31667	-0.02340426
17.33333	-0.02340426
17.35	-0.02340426
17.36667	-0.02340426
17.38333	-0.02340426
17.4	-0.02340426
17.41667	-0.02340426
17.43333	-0.02340426
17.45	-0.02340426
17.46667	-0.02340426
17.48333	-0.02340426
17.5	-0.02340426
17.51667	-0.02340426
17.53333	-0.02340426
17.55	-0.02340426
17.56667	-0.02340426
17.58333	-0.02340426
17.6	-0.02340426
17.61667	-0.02340426
17.63333	-0.02340426
17.65	-0.02340426
17.66667	-0.02340426
17.68333	-0.02340426
17.7	-0.02340426
17.71667	-0.02340426
17.73333	-0.02340426
17.75	-0.02340426
17.76667	-0.02340426
17.78333	-0.02340426
17.8	-0.02340426
17.81667	-0.02340426
17.83333	-0.02340426
17.85	-0.02340426
17.86667	-0.02340426
17.88333	-0.02340426
17.9	-0.02340426
17.91667	-0.02340426
17.93333	-0.02340426
17.95	-0.02340426
17.96667	-0.02340426
17.98333	-0.02340426
18	-0.02340426
18.01667	-0.02340426
18.03333	-0.02340426
18.05	-0.02340426
18.06667	-0.02340426
18.08333	-0.02340426
18.1	-0.02340426
18.11667	-0.02340426
18.13333	-0.02340426
18.15	-0.02340426
18.16667	-0.02340426
18.18333	-0.02340426
18.2	-0.02340426
18.21667	-0.02340426
18.23333	-0.02340426
18.25	-0.02340426
18.26667	-0.02340426
18.28333	-0.02340426
18.3	-0.02340426
18.31667	-0.02340426
18.33333	-0.02340426
18.35	-0.02340426
18.36667	-0.02340426
18.38333	-0.02340426
18.4	-0.02340426
18.41667	-0.02340426
18.43333	-0.02340426
18.45	-0.02340426
18.46667	-0.02340426
18.48333	-0.02340426
18.5	-0.02340426
18.51667	-0.02340426
18.53333	-0.02340426
18.55	-0.02340426
18.56667	-0.02340426
18.58333	-0.02340426
18.6	-0.02340426
18.61667	-0.02340426
18.63333	-0.02340426
18.65	-0.02340426
18.66667	-0.02340426
18.68333	-0.02340426
18.7	-0.02340426
18.71667	-0.02340426
18.73333	-0.02340426
18.75	-0.02340426
18.76667	-0.02340426
18.78333	-0.02340426
18.8	-0.02340426
18.81667	-0.02340426
18.83333	-0.02340426
18.85	-0.02340426
18.86667	-0.02340426
18.88333	-0.02340426
18.9	-0.02340426
18.91667	-0.02340426
18.93333	-0.02340426
18.95	-0.02340426
18.96667	-0.02340426
18.98333	-0.02340426
19	-0.02340426
19.01667	-0.02340426
19.03333	-0.02340426
19.05	-0.02340426
19.06667	-0.02340426
19.08333	-0.02340426
19.1	-0.02340426
19.11667	-0.02340426
19.13333	-0.02340426
19.15	-0.02340426
19.16667	-0.02340426
19.18333	-0.02340426
19.2	-0.02340426
19.21667	-0.02340426
19.23333	-0.02340426
19.25	-0.02340426
19.26667	-0.02340426
19.28333	-0.02340426
19.3	-0.02340426
19.31667	-0.02340426
19.33333	-0.02340426
19.35	-0.02340426
19.36667	-0.02340426
19.38333	-0.02340426
19.4	-0.02340426
19.41667	-0.02340426
19.43333	-0.02340426
19.45	-0.02340426
19.46667	-0.02340426
19.48333	-0.02340426
19.5	-0.02340426
19.51667	-0.02340426
19.53333	-0.02340426
19.55	-0.02340426
19.56667	-0.02340426
19.58333	-0.02340426
19.6	-0.02340426
19.61667	-0.02340426
19.63333	-0.02340426
19.65	-0.0187234
19.66667	-0.02340426
19.68333	-0.02340426
19.7	-0.02340426
19.71667	-0.02340426
19.73333	-0.02340426
19.75	-0.0187234
19.76667	-0.02340426
19.78333	-0.02340426
19.8	-0.02340426
19.81667	-0.02340426
19.83333	-0.0187234
19.85	-0.0187234
19.86667	-0.0187234
19.88333	-0.0187234
19.9	-0.02340426
19.91667	-0.0187234
19.93333	-0.0187234
19.95	-0.0187234
19.96667	-0.0187234
19.98333	-0.0187234
20	-0.0187234
