"Sample Set Id"	1752
"Sample Set Name"	"sad100124HPA"
"System Name"	"System III"
"Instrument Method Name"	"System 3_RI"
"SampleName"	"PMMA41.4kDa"
"Injection"	1
"Vial"	"6"
"Channel"	"410 "
0.01666667	0.004680851
0.03333333	0
0.05	0
0.06666667	0
0.08333333	0
0.1	0
0.1166667	0
0.1333333	0
0.15	0
0.1666667	0
0.1833333	0
0.2	0
0.2166667	0
0.2333333	0
0.25	0
0.2666667	0
0.2833333	0
0.3	0.004680851
0.3166667	0.004680851
0.3333333	0.004680851
0.35	0.004680851
0.3666667	0.004680851
0.3833333	0.004680851
0.4	0.009361702
0.4166667	0.009361702
0.4333333	0.009361702
0.45	0.009361702
0.4666667	0.009361702
0.4833333	0.009361702
0.5	0.009361702
0.5166667	0.009361702
0.5333333	0.009361702
0.55	0.009361702
0.5666667	0.009361702
0.5833333	0.01404255
0.6	0.01404255
0.6166667	0.01404255
0.6333333	0.01404255
0.65	0.01404255
0.6666667	0.01404255
0.6833333	0.01404255
0.7	0.01404255
0.7166667	0.01404255
0.7333333	0.01404255
0.75	0.01404255
0.7666667	0.01404255
0.7833333	0.01404255
0.8	0.01404255
0.8166667	0.01404255
0.8333333	0.01404255
0.85	0.01404255
0.8666667	0.01404255
0.8833333	0.01404255
0.9	0.01404255
0.9166667	0.01404255
0.9333333	0.01404255
0.95	0.01404255
0.9666667	0.01404255
0.9833333	0.01404255
1	0.01404255
1.016667	0.01404255
1.033333	0.01404255
1.05	0.01404255
1.066667	0.01404255
1.083333	0.01404255
1.1	0.01404255
1.116667	0.01404255
1.133333	0.01404255
1.15	0.01404255
1.166667	0.01404255
1.183333	0.01404255
1.2	0.01404255
1.216667	0.01404255
1.233333	0.009361702
1.25	0.009361702
1.266667	0.009361702
1.283333	0.01404255
1.3	0.01404255
1.316667	0.01404255
1.333333	0.01404255
1.35	0.01404255
1.366667	0.01404255
1.383333	0.01404255
1.4	0.01404255
1.416667	0.01404255
1.433333	0.009361702
1.45	0.009361702
1.466667	0.01404255
1.483333	0.009361702
1.5	0.01404255
1.516667	0.01404255
1.533333	0.009361702
1.55	0.009361702
1.566667	0.01404255
1.583333	0.01404255
1.6	0.01404255
1.616667	0.009361702
1.633333	0.009361702
1.65	0.009361702
1.666667	0.009361702
1.683333	0.009361702
1.7	0.009361702
1.716667	0.009361702
1.733333	0.009361702
1.75	0.009361702
1.766667	0.009361702
1.783333	0.009361702
1.8	0.009361702
1.816667	0.009361702
1.833333	0.009361702
1.85	0.009361702
1.866667	0.009361702
1.883333	0.009361702
1.9	0.009361702
1.916667	0.009361702
1.933333	0.009361702
1.95	0.009361702
1.966667	0.009361702
1.983333	0.009361702
2	0.009361702
2.016667	0.009361702
2.033333	0.009361702
2.05	0.009361702
2.066667	0.009361702
2.083333	0.009361702
2.1	0.009361702
2.116667	0.009361702
2.133333	0.009361702
2.15	0.009361702
2.166667	0.009361702
2.183333	0.009361702
2.2	0.009361702
2.216667	0.009361702
2.233333	0.009361702
2.25	0.009361702
2.266667	0.009361702
2.283333	0.009361702
2.3	0.009361702
2.316667	0.009361702
2.333333	0.009361702
2.35	0.009361702
2.366667	0.009361702
2.383333	0.009361702
2.4	0.009361702
2.416667	0.009361702
2.433333	0.009361702
2.45	0.009361702
2.466667	0.009361702
2.483333	0.009361702
2.5	0.009361702
2.516667	0.009361702
2.533333	0.009361702
2.55	0.009361702
2.566667	0.009361702
2.583333	0.009361702
2.6	0.01404255
2.616667	0.01404255
2.633333	0.009361702
2.65	0.01404255
2.666667	0.009361702
2.683333	0.01404255
2.7	0.01404255
2.716667	0.01404255
2.733333	0.01404255
2.75	0.01404255
2.766667	0.01404255
2.783333	0.01404255
2.8	0.01404255
2.816667	0.01404255
2.833333	0.01404255
2.85	0.01404255
2.866667	0.01404255
2.883333	0.01404255
2.9	0.01404255
2.916667	0.01404255
2.933333	0.01404255
2.95	0.01404255
2.966667	0.01404255
2.983333	0.01404255
3	0.01404255
3.016667	0.01404255
3.033333	0.01404255
3.05	0.01404255
3.066667	0.01404255
3.083333	0.01404255
3.1	0.01404255
3.116667	0.01404255
3.133333	0.01404255
3.15	0.01404255
3.166667	0.01404255
3.183333	0.01404255
3.2	0.01404255
3.216667	0.01404255
3.233333	0.01404255
3.25	0.009361702
3.266667	0.01404255
3.283333	0.01404255
3.3	0.01404255
3.316667	0.01404255
3.333333	0.01404255
3.35	0.01404255
3.366667	0.01404255
3.383333	0.01404255
3.4	0.01404255
3.416667	0.01404255
3.433333	0.01404255
3.45	0.01404255
3.466667	0.01404255
3.483333	0.01404255
3.5	0.01404255
3.516667	0.01404255
3.533333	0.01404255
3.55	0.01404255
3.566667	0.01404255
3.583333	0.01404255
3.6	0.01404255
3.616667	0.01404255
3.633333	0.01404255
3.65	0.01404255
3.666667	0.01404255
3.683333	0.01404255
3.7	0.01404255
3.716667	0.01404255
3.733333	0.01404255
3.75	0.01404255
3.766667	0.01404255
3.783333	0.01404255
3.8	0.01404255
3.816667	0.01404255
3.833333	0.01404255
3.85	0.01404255
3.866667	0.01404255
3.883333	0.01404255
3.9	0.01404255
3.916667	0.01404255
3.933333	0.01404255
3.95	0.01404255
3.966667	0.01404255
3.983333	0.01404255
4	0.01404255
4.016667	0.01404255
4.033333	0.01404255
4.05	0.01404255
4.066667	0.01404255
4.083333	0.01404255
4.1	0.01404255
4.116667	0.01404255
4.133333	0.01404255
4.15	0.01404255
4.166667	0.01404255
4.183333	0.01404255
4.2	0.01404255
4.216667	0.01404255
4.233333	0.01404255
4.25	0.01404255
4.266667	0.01404255
4.283333	0.01404255
4.3	0.01404255
4.316667	0.01404255
4.333333	0.01404255
4.35	0.01404255
4.366667	0.01404255
4.383333	0.01404255
4.4	0.01404255
4.416667	0.01404255
4.433333	0.01404255
4.45	0.01404255
4.466667	0.01404255
4.483333	0.01404255
4.5	0.01404255
4.516667	0.009361702
4.533333	0.01404255
4.55	0.009361702
4.566667	0.009361702
4.583333	0.009361702
4.6	0.01404255
4.616667	0.009361702
4.633333	0.009361702
4.65	0.009361702
4.666667	0.009361702
4.683333	0.009361702
4.7	0.009361702
4.716667	0.009361702
4.733333	0.009361702
4.75	0.009361702
4.766667	0.009361702
4.783333	0.009361702
4.8	0.009361702
4.816667	0.009361702
4.833333	0.009361702
4.85	0.009361702
4.866667	0.009361702
4.883333	0.009361702
4.9	0.009361702
4.916667	0.009361702
4.933333	0.009361702
4.95	0.009361702
4.966667	0.009361702
4.983333	0.009361702
5	0.009361702
5.016667	0.009361702
5.033333	0.009361702
5.05	0.009361702
5.066667	0.009361702
5.083333	0.009361702
5.1	0.009361702
5.116667	0.009361702
5.133333	0.009361702
5.15	0.009361702
5.166667	0.009361702
5.183333	0.009361702
5.2	0.009361702
5.216667	0.009361702
5.233333	0.009361702
5.25	0.009361702
5.266667	0.009361702
5.283333	0.009361702
5.3	0.009361702
5.316667	0.009361702
5.333333	0.009361702
5.35	0.009361702
5.366667	0.009361702
5.383333	0.009361702
5.4	0.009361702
5.416667	0.009361702
5.433333	0.009361702
5.45	0.009361702
5.466667	0.009361702
5.483333	0.009361702
5.5	0.009361702
5.516667	0.009361702
5.533333	0.009361702
5.55	0.009361702
5.566667	0.009361702
5.583333	0.009361702
5.6	0.009361702
5.616667	0.009361702
5.633333	0.009361702
5.65	0.009361702
5.666667	0.009361702
5.683333	0.009361702
5.7	0.009361702
5.716667	0.009361702
5.733333	0.009361702
5.75	0.009361702
5.766667	0.009361702
5.783333	0.009361702
5.8	0.009361702
5.816667	0.009361702
5.833333	0.009361702
5.85	0.009361702
5.866667	0.009361702
5.883333	0.009361702
5.9	0.009361702
5.916667	0.009361702
5.933333	0.009361702
5.95	0.009361702
5.966667	0.009361702
5.983333	0.009361702
6	0.009361702
6.016667	0.004680851
6.033333	0.004680851
6.05	0.004680851
6.066667	0.004680851
6.083333	0.004680851
6.1	0.004680851
6.116667	0.004680851
6.133333	0.004680851
6.15	0.004680851
6.166667	0.004680851
6.183333	0.004680851
6.2	0.004680851
6.216667	0
6.233333	0
6.25	0
6.266667	0
6.283333	0
6.3	0
6.316667	0
6.333333	0
6.35	0
6.366667	0
6.383333	0
6.4	0
6.416667	0
6.433333	0
6.45	0
6.466667	0
6.483333	0
6.5	0
6.516667	0
6.533333	0
6.55	0
6.566667	0
6.583333	0
6.6	0
6.616667	-0.004680851
6.633333	-0.004680851
6.65	-0.004680851
6.666667	-0.004680851
6.683333	-0.004680851
6.7	-0.004680851
6.716667	-0.004680851
6.733333	-0.004680851
6.75	-0.004680851
6.766667	-0.004680851
6.783333	0
6.8	0
6.816667	0
6.833333	-0.004680851
6.85	-0.004680851
6.866667	0
6.883333	0
6.9	0
6.916667	0
6.933333	0
6.95	0
6.966667	0
6.983333	0
7	0.004680851
7.016667	0.004680851
7.033333	0.004680851
7.05	0.01404255
7.066667	0.0187234
7.083333	0.03276596
7.1	0.04680851
7.116667	0.07021277
7.133333	0.1029787
7.15	0.1451064
7.166667	0.1965957
7.183333	0.2714894
7.2	0.3604255
7.216667	0.4634042
7.233333	0.5897872
7.25	0.7489362
7.266667	0.9268085
7.283333	1.137447
7.3	1.371489
7.316667	1.624255
7.333333	1.905106
7.35	2.204681
7.366667	2.518298
7.383333	2.841277
7.4	3.164255
7.416667	3.477872
7.433333	3.777447
7.45	4.06766
7.466667	4.334468
7.483333	4.573191
7.5	4.779149
7.516667	4.94766
7.533333	5.088085
7.55	5.191064
7.566667	5.261277
7.583333	5.298723
7.6	5.303404
7.616667	5.284681
7.633333	5.237872
7.65	5.17234
7.666667	5.083404
7.683333	4.980425
7.7	4.863404
7.716667	4.737021
7.733333	4.596596
7.75	4.45617
7.766667	4.306383
7.783333	4.156596
7.8	4.002128
7.816667	3.84766
7.833333	3.697872
7.85	3.543404
7.866667	3.393617
7.883333	3.24383
7.9	3.094043
7.916667	2.953617
7.933333	2.813191
7.95	2.672766
7.966667	2.541702
7.983333	2.410638
8	2.284255
8.016667	2.167234
8.033333	2.050213
8.05	1.933191
8.066667	1.825532
8.083333	1.722553
8.1	1.624255
8.116667	1.530638
8.133333	1.441702
8.15	1.357447
8.166667	1.282553
8.183333	1.21234
8.2	1.142128
8.216667	1.081277
8.233333	1.020426
8.25	0.9689362
8.266667	0.9174468
8.283333	0.8753191
8.3	0.8331915
8.316667	0.7957447
8.333333	0.7582979
8.35	0.7255319
8.366667	0.6927659
8.383333	0.6693617
8.4	0.6412766
8.416667	0.6178723
8.433333	0.5944681
8.45	0.5757447
8.466667	0.5617021
8.483333	0.5429787
8.5	0.5289362
8.516667	0.5148936
8.533333	0.5055319
8.55	0.4914894
8.566667	0.4821277
8.583333	0.472766
8.6	0.4680851
8.616667	0.4587234
8.633333	0.4493617
8.65	0.4446808
8.666667	0.4353191
8.683333	0.4306383
8.7	0.4306383
8.716667	0.4259574
8.733333	0.4212766
8.75	0.4165957
8.766667	0.4119149
8.783333	0.4119149
8.8	0.407234
8.816667	0.407234
8.833333	0.4025532
8.85	0.4025532
8.866667	0.4025532
8.883333	0.4025532
8.9	0.407234
8.916667	0.407234
8.933333	0.407234
8.95	0.4119149
8.966667	0.4165957
8.983333	0.4212766
9	0.4259574
9.016667	0.4306383
9.033333	0.4353191
9.05	0.44
9.066667	0.4446808
9.083333	0.4540425
9.1	0.4587234
9.116667	0.4634042
9.133333	0.4680851
9.15	0.472766
9.166667	0.4774468
9.183333	0.4821277
9.2	0.4821277
9.216667	0.4821277
9.233333	0.4821277
9.25	0.4821277
9.266667	0.4774468
9.283333	0.472766
9.3	0.4680851
9.316667	0.4634042
9.333333	0.4587234
9.35	0.4493617
9.366667	0.44
9.383333	0.4306383
9.4	0.4165957
9.416667	0.407234
9.433333	0.3931915
9.45	0.3791489
9.466667	0.3651064
9.483333	0.3510638
9.5	0.3370213
9.516667	0.3229787
9.533333	0.3042553
9.55	0.2902128
9.566667	0.2714894
9.583333	0.2480851
9.6	0.2246808
9.616667	0.2012766
9.633333	0.1638298
9.65	0.1217021
9.666667	0.07021277
9.683333	0
9.7	-0.08893617
9.716667	-0.2059574
9.733333	-0.3557447
9.75	-0.533617
9.766667	-0.7395745
9.783333	-0.973617
9.8	-1.231064
9.816667	-1.497872
9.833333	-1.774043
9.85	-2.045532
9.866667	-2.30766
9.883333	-2.565106
9.9	-2.817872
9.916667	-3.075319
9.933333	-3.351489
9.95	-3.669787
9.966667	-4.044255
9.983333	-4.498298
10	-5.045957
10.01667	-5.677872
10.03333	-6.365957
10.05	-7.072766
10.06667	-7.746808
10.08333	-8.336596
10.1	-8.795319
10.11667	-9.090213
10.13333	-9.216596
10.15	-9.179149
10.16667	-8.996596
10.18333	-8.701702
10.2	-8.322553
10.21667	-7.887234
10.23333	-7.428511
10.25	-6.965106
10.26667	-6.506383
10.28333	-6.066383
10.3	-5.649787
10.31667	-5.265957
10.33333	-4.910213
10.35	-4.587234
10.36667	-4.29234
10.38333	-4.025532
10.4	-3.786808
10.41667	-3.571489
10.43333	-3.384255
10.45	-3.215745
10.46667	-3.056596
10.48333	-2.91617
10.5	-2.785106
10.51667	-2.663404
10.53333	-2.546383
10.55	-2.434043
10.56667	-2.326383
10.58333	-2.218723
10.6	-2.111064
10.61667	-2.008085
10.63333	-1.905106
10.65	-1.802128
10.66667	-1.699149
10.68333	-1.600851
10.7	-1.497872
10.71667	-1.399574
10.73333	-1.305957
10.75	-1.20766
10.76667	-1.114043
10.78333	-1.025106
10.8	-0.9408511
10.81667	-0.8612766
10.83333	-0.786383
10.85	-0.7161702
10.86667	-0.66
10.88333	-0.6038298
10.9	-0.5617021
10.91667	-0.5242553
10.93333	-0.4914894
10.95	-0.4680851
10.96667	-0.4493617
10.98333	-0.4353191
11	-0.4259574
11.01667	-0.4165957
11.03333	-0.4165957
11.05	-0.4119149
11.06667	-0.4119149
11.08333	-0.4165957
11.1	-0.4165957
11.11667	-0.4212766
11.13333	-0.4259574
11.15	-0.4306383
11.16667	-0.4353191
11.18333	-0.4353191
11.2	-0.44
11.21667	-0.4446808
11.23333	-0.4493617
11.25	-0.4493617
11.26667	-0.4493617
11.28333	-0.4493617
11.3	-0.4493617
11.31667	-0.4493617
11.33333	-0.4493617
11.35	-0.4446808
11.36667	-0.4446808
11.38333	-0.44
11.4	-0.4353191
11.41667	-0.4306383
11.43333	-0.4259574
11.45	-0.4212766
11.46667	-0.4165957
11.48333	-0.4119149
11.5	-0.407234
11.51667	-0.4025532
11.53333	-0.4025532
11.55	-0.3978723
11.56667	-0.4025532
11.58333	-0.407234
11.6	-0.4119149
11.61667	-0.4259574
11.63333	-0.4446808
11.65	-0.472766
11.66667	-0.5055319
11.68333	-0.5476596
11.7	-0.5944681
11.71667	-0.6553191
11.73333	-0.7161702
11.75	-0.786383
11.76667	-0.8519149
11.78333	-0.9221276
11.8	-0.9923404
11.81667	-1.053191
11.83333	-1.109362
11.85	-1.15617
11.86667	-1.193617
11.88333	-1.221702
11.9	-1.235745
11.91667	-1.245106
11.93333	-1.245106
11.95	-1.235745
11.96667	-1.221702
11.98333	-1.202979
12	-1.179574
12.01667	-1.15617
12.03333	-1.132766
12.05	-1.104681
12.06667	-1.081277
12.08333	-1.062553
12.1	-1.039149
12.11667	-1.025106
12.13333	-1.011064
12.15	-1.001702
12.16667	-0.9970213
12.18333	-0.9923404
12.2	-0.9923404
12.21667	-1.001702
12.23333	-1.011064
12.25	-1.020426
12.26667	-1.029787
12.28333	-1.039149
12.3	-1.048511
12.31667	-1.053191
12.33333	-1.057872
12.35	-1.057872
12.36667	-1.057872
12.38333	-1.048511
12.4	-1.034468
12.41667	-1.020426
12.43333	-1.006383
12.45	-0.9829787
12.46667	-0.9548936
12.48333	-0.9268085
12.5	-0.8987234
12.51667	-0.8659574
12.53333	-0.8378723
12.55	-0.8051064
12.56667	-0.7676596
12.58333	-0.7348936
12.6	-0.7021277
12.61667	-0.6693617
12.63333	-0.6412766
12.65	-0.6085106
12.66667	-0.5804255
12.68333	-0.5523404
12.7	-0.5242553
12.71667	-0.4961702
12.73333	-0.472766
12.75	-0.4493617
12.76667	-0.4259574
12.78333	-0.4025532
12.8	-0.3838298
12.81667	-0.3651064
12.83333	-0.3510638
12.85	-0.3323404
12.86667	-0.3182979
12.88333	-0.3042553
12.9	-0.2902128
12.91667	-0.2761702
12.93333	-0.2668085
12.95	-0.2574468
12.96667	-0.2480851
12.98333	-0.2340426
13	-0.2246808
13.01667	-0.22
13.03333	-0.2106383
13.05	-0.2059574
13.06667	-0.1965957
13.08333	-0.1919149
13.1	-0.1825532
13.11667	-0.1778723
13.13333	-0.1685106
13.15	-0.1638298
13.16667	-0.1591489
13.18333	-0.1544681
13.2	-0.1497872
13.21667	-0.1451064
13.23333	-0.1404255
13.25	-0.1357447
13.26667	-0.1357447
13.28333	-0.1310638
13.3	-0.126383
13.31667	-0.1217021
13.33333	-0.1170213
13.35	-0.1170213
13.36667	-0.1123404
13.38333	-0.1076596
13.4	-0.1076596
13.41667	-0.1029787
13.43333	-0.1029787
13.45	-0.1029787
13.46667	-0.09829787
13.48333	-0.09361702
13.5	-0.09361702
13.51667	-0.09361702
13.53333	-0.08893617
13.55	-0.08893617
13.56667	-0.08893617
13.58333	-0.08425532
13.6	-0.08425532
13.61667	-0.08425532
13.63333	-0.08425532
13.65	-0.07957447
13.66667	-0.07957447
13.68333	-0.07957447
13.7	-0.07489362
13.71667	-0.07489362
13.73333	-0.07489362
13.75	-0.07489362
13.76667	-0.07489362
13.78333	-0.07489362
13.8	-0.07021277
13.81667	-0.07489362
13.83333	-0.07489362
13.85	-0.07489362
13.86667	-0.07489362
13.88333	-0.07489362
13.9	-0.07021277
13.91667	-0.07021277
13.93333	-0.07489362
13.95	-0.07021277
13.96667	-0.07021277
13.98333	-0.07021277
14	-0.07021277
14.01667	-0.07021277
14.03333	-0.07489362
14.05	-0.07489362
14.06667	-0.07489362
14.08333	-0.07489362
14.1	-0.07021277
14.11667	-0.07021277
14.13333	-0.07021277
14.15	-0.07489362
14.16667	-0.07489362
14.18333	-0.07021277
14.2	-0.07021277
14.21667	-0.07489362
14.23333	-0.07489362
14.25	-0.07489362
14.26667	-0.07489362
14.28333	-0.07489362
14.3	-0.07489362
14.31667	-0.07489362
14.33333	-0.07489362
14.35	-0.07489362
14.36667	-0.07489362
14.38333	-0.07489362
14.4	-0.07021277
14.41667	-0.07489362
14.43333	-0.07489362
14.45	-0.07489362
14.46667	-0.07021277
14.48333	-0.07021277
14.5	-0.07021277
14.51667	-0.07021277
14.53333	-0.07021277
14.55	-0.07021277
14.56667	-0.07021277
14.58333	-0.06553191
14.6	-0.06553191
14.61667	-0.06553191
14.63333	-0.06553191
14.65	-0.06553191
14.66667	-0.06553191
14.68333	-0.06553191
14.7	-0.06085106
14.71667	-0.06085106
14.73333	-0.06085106
14.75	-0.06085106
14.76667	-0.06085106
14.78333	-0.06085106
14.8	-0.05617021
14.81667	-0.05617021
14.83333	-0.05617021
14.85	-0.05617021
14.86667	-0.05617021
14.88333	-0.05617021
14.9	-0.05148936
14.91667	-0.05148936
14.93333	-0.05148936
14.95	-0.05148936
14.96667	-0.05148936
14.98333	-0.04680851
15	-0.04680851
15.01667	-0.04680851
15.03333	-0.04680851
15.05	-0.04680851
15.06667	-0.04212766
15.08333	-0.04212766
15.1	-0.04212766
15.11667	-0.04212766
15.13333	-0.04212766
15.15	-0.04212766
15.16667	-0.03744681
15.18333	-0.03744681
15.2	-0.03744681
15.21667	-0.03744681
15.23333	-0.03744681
15.25	-0.03276596
15.26667	-0.03276596
15.28333	-0.03276596
15.3	-0.03276596
15.31667	-0.03276596
15.33333	-0.03276596
15.35	-0.03276596
15.36667	-0.02808511
15.38333	-0.02808511
15.4	-0.02808511
15.41667	-0.02808511
15.43333	-0.02808511
15.45	-0.02808511
15.46667	-0.02808511
15.48333	-0.02340426
15.5	-0.02340426
15.51667	-0.02340426
15.53333	-0.02340426
15.55	-0.02340426
15.56667	-0.02340426
15.58333	-0.02340426
15.6	-0.0187234
15.61667	-0.0187234
15.63333	-0.0187234
15.65	-0.0187234
15.66667	-0.0187234
15.68333	-0.0187234
15.7	-0.0187234
15.71667	-0.0187234
15.73333	-0.0187234
15.75	-0.0187234
15.76667	-0.0187234
15.78333	-0.01404255
15.8	-0.01404255
15.81667	-0.01404255
15.83333	-0.01404255
15.85	-0.01404255
15.86667	-0.01404255
15.88333	-0.01404255
15.9	-0.01404255
15.91667	-0.01404255
15.93333	-0.01404255
15.95	-0.01404255
15.96667	-0.01404255
15.98333	-0.009361702
16	-0.009361702
16.01667	-0.009361702
16.03333	-0.009361702
16.05	-0.009361702
16.06667	-0.009361702
16.08333	-0.009361702
16.1	-0.009361702
16.11667	-0.009361702
16.13333	-0.009361702
16.15	-0.009361702
16.16667	-0.009361702
16.18333	-0.009361702
16.2	-0.009361702
16.21667	-0.009361702
16.23333	-0.009361702
16.25	-0.009361702
16.26667	-0.009361702
16.28333	-0.009361702
16.3	-0.009361702
16.31667	-0.009361702
16.33333	-0.009361702
16.35	-0.009361702
16.36667	-0.004680851
16.38333	-0.004680851
16.4	-0.004680851
16.41667	-0.004680851
16.43333	-0.009361702
16.45	-0.004680851
16.46667	-0.004680851
16.48333	-0.004680851
16.5	-0.004680851
16.51667	-0.004680851
16.53333	-0.004680851
16.55	-0.004680851
16.56667	-0.004680851
16.58333	-0.004680851
16.6	-0.004680851
16.61667	-0.004680851
16.63333	-0.004680851
16.65	-0.004680851
16.66667	-0.004680851
16.68333	-0.004680851
16.7	-0.004680851
16.71667	-0.004680851
16.73333	-0.004680851
16.75	-0.004680851
16.76667	-0.004680851
16.78333	-0.004680851
16.8	-0.004680851
16.81667	-0.004680851
16.83333	-0.004680851
16.85	-0.004680851
16.86667	-0.004680851
16.88333	-0.004680851
16.9	-0.004680851
16.91667	-0.004680851
16.93333	-0.004680851
16.95	-0.004680851
16.96667	-0.004680851
16.98333	-0.004680851
17	-0.004680851
17.01667	-0.004680851
17.03333	-0.004680851
17.05	-0.004680851
17.06667	-0.004680851
17.08333	-0.004680851
17.1	-0.004680851
17.11667	-0.004680851
17.13333	-0.004680851
17.15	-0.004680851
17.16667	-0.004680851
17.18333	-0.004680851
17.2	-0.004680851
17.21667	-0.004680851
17.23333	-0.004680851
17.25	-0.004680851
17.26667	-0.004680851
17.28333	-0.004680851
17.3	-0.004680851
17.31667	-0.004680851
17.33333	-0.004680851
17.35	-0.004680851
17.36667	-0.004680851
17.38333	-0.004680851
17.4	-0.004680851
17.41667	-0.004680851
17.43333	-0.004680851
17.45	-0.004680851
17.46667	-0.004680851
17.48333	-0.004680851
17.5	-0.004680851
17.51667	-0.004680851
17.53333	-0.004680851
17.55	-0.004680851
17.56667	-0.004680851
17.58333	-0.004680851
17.6	-0.004680851
17.61667	-0.004680851
17.63333	-0.004680851
17.65	-0.004680851
17.66667	-0.004680851
17.68333	-0.004680851
17.7	-0.004680851
17.71667	-0.004680851
17.73333	-0.004680851
17.75	-0.004680851
17.76667	-0.004680851
17.78333	-0.004680851
17.8	-0.004680851
17.81667	-0.004680851
17.83333	-0.004680851
17.85	-0.004680851
17.86667	-0.004680851
17.88333	-0.004680851
17.9	-0.004680851
17.91667	-0.004680851
17.93333	-0.004680851
17.95	-0.004680851
17.96667	-0.004680851
17.98333	-0.004680851
18	-0.004680851
18.01667	-0.004680851
18.03333	-0.004680851
18.05	-0.004680851
18.06667	-0.004680851
18.08333	-0.004680851
18.1	-0.004680851
18.11667	-0.004680851
18.13333	-0.004680851
18.15	-0.004680851
18.16667	-0.004680851
18.18333	-0.004680851
18.2	-0.004680851
18.21667	-0.004680851
18.23333	-0.009361702
18.25	-0.009361702
18.26667	-0.009361702
18.28333	-0.009361702
18.3	-0.009361702
18.31667	-0.009361702
18.33333	-0.009361702
18.35	-0.009361702
18.36667	-0.009361702
18.38333	-0.009361702
18.4	-0.004680851
18.41667	-0.009361702
18.43333	-0.009361702
18.45	-0.009361702
18.46667	-0.009361702
18.48333	-0.009361702
18.5	-0.009361702
18.51667	-0.009361702
18.53333	-0.009361702
18.55	-0.009361702
18.56667	-0.009361702
18.58333	-0.009361702
18.6	-0.004680851
18.61667	-0.009361702
18.63333	-0.009361702
18.65	-0.009361702
18.66667	-0.009361702
18.68333	-0.004680851
18.7	-0.004680851
18.71667	-0.004680851
18.73333	-0.004680851
18.75	-0.004680851
18.76667	-0.004680851
18.78333	-0.004680851
18.8	-0.004680851
18.81667	-0.004680851
18.83333	-0.004680851
18.85	-0.004680851
18.86667	-0.004680851
18.88333	-0.004680851
18.9	-0.004680851
18.91667	-0.004680851
18.93333	-0.004680851
18.95	-0.004680851
18.96667	-0.004680851
18.98333	-0.004680851
19	-0.004680851
19.01667	-0.004680851
19.03333	-0.004680851
19.05	-0.004680851
19.06667	-0.004680851
19.08333	-0.004680851
19.1	-0.004680851
19.11667	-0.004680851
19.13333	-0.004680851
19.15	-0.004680851
19.16667	-0.004680851
19.18333	-0.004680851
19.2	-0.004680851
19.21667	-0.004680851
19.23333	-0.004680851
19.25	-0.004680851
19.26667	-0.004680851
19.28333	-0.004680851
19.3	-0.004680851
19.31667	-0.004680851
19.33333	-0.004680851
19.35	-0.004680851
19.36667	-0.004680851
19.38333	-0.004680851
19.4	0
19.41667	-0.004680851
19.43333	-0.004680851
19.45	0
19.46667	0
19.48333	0
19.5	0
19.51667	0
19.53333	0
19.55	0
19.56667	0
19.58333	0
19.6	0
19.61667	0
19.63333	0
19.65	0
19.66667	0
19.68333	0
19.7	0
19.71667	0
19.73333	0
19.75	0
19.76667	0
19.78333	0
19.8	0
19.81667	0
19.83333	0
19.85	0
19.86667	0
19.88333	0
19.9	0
19.91667	0
19.93333	0
19.95	0
19.96667	0
19.98333	0
20	0
