"Sample Set Id"	1752
"Sample Set Name"	"sad100124HPA"
"System Name"	"System III"
"Instrument Method Name"	"System 3_RI"
"SampleName"	"PMMA217kDa"
"Injection"	1
"Vial"	"8"
"Channel"	"410 "
0.01666667	0.004680851
0.03333333	0
0.05	0
0.06666667	0
0.08333333	0
0.1	0
0.1166667	0
0.1333333	0
0.15	0
0.1666667	0
0.1833333	0
0.2	0
0.2166667	0
0.2333333	0
0.25	0
0.2666667	0
0.2833333	0.004680851
0.3	0.004680851
0.3166667	0.004680851
0.3333333	0.004680851
0.35	0.004680851
0.3666667	0.004680851
0.3833333	0.004680851
0.4	0.004680851
0.4166667	0.004680851
0.4333333	0.004680851
0.45	0.004680851
0.4666667	0.004680851
0.4833333	0.009361702
0.5	0.009361702
0.5166667	0.009361702
0.5333333	0.009361702
0.55	0.009361702
0.5666667	0.009361702
0.5833333	0.009361702
0.6	0.009361702
0.6166667	0.009361702
0.6333333	0.009361702
0.65	0.009361702
0.6666667	0.009361702
0.6833333	0.009361702
0.7	0.009361702
0.7166667	0.009361702
0.7333333	0.009361702
0.75	0.009361702
0.7666667	0.009361702
0.7833333	0.009361702
0.8	0.009361702
0.8166667	0.009361702
0.8333333	0.009361702
0.85	0.009361702
0.8666667	0.009361702
0.8833333	0.01404255
0.9	0.01404255
0.9166667	0.01404255
0.9333333	0.009361702
0.95	0.009361702
0.9666667	0.009361702
0.9833333	0.009361702
1	0.009361702
1.016667	0.009361702
1.033333	0.009361702
1.05	0.009361702
1.066667	0.009361702
1.083333	0.01404255
1.1	0.01404255
1.116667	0.009361702
1.133333	0.009361702
1.15	0.009361702
1.166667	0.009361702
1.183333	0.009361702
1.2	0.01404255
1.216667	0.009361702
1.233333	0.009361702
1.25	0.009361702
1.266667	0.01404255
1.283333	0.01404255
1.3	0.01404255
1.316667	0.009361702
1.333333	0.009361702
1.35	0.009361702
1.366667	0.009361702
1.383333	0.009361702
1.4	0.01404255
1.416667	0.01404255
1.433333	0.009361702
1.45	0.009361702
1.466667	0.009361702
1.483333	0.009361702
1.5	0.01404255
1.516667	0.009361702
1.533333	0.009361702
1.55	0.009361702
1.566667	0.009361702
1.583333	0.009361702
1.6	0.009361702
1.616667	0.009361702
1.633333	0.009361702
1.65	0.009361702
1.666667	0.009361702
1.683333	0.009361702
1.7	0.01404255
1.716667	0.009361702
1.733333	0.009361702
1.75	0.009361702
1.766667	0.009361702
1.783333	0.009361702
1.8	0.009361702
1.816667	0.009361702
1.833333	0.009361702
1.85	0.009361702
1.866667	0.009361702
1.883333	0.009361702
1.9	0.009361702
1.916667	0.009361702
1.933333	0.009361702
1.95	0.009361702
1.966667	0.009361702
1.983333	0.009361702
2	0.009361702
2.016667	0.009361702
2.033333	0.009361702
2.05	0.009361702
2.066667	0.009361702
2.083333	0.009361702
2.1	0.009361702
2.116667	0.009361702
2.133333	0.009361702
2.15	0.009361702
2.166667	0.009361702
2.183333	0.009361702
2.2	0.009361702
2.216667	0.009361702
2.233333	0.009361702
2.25	0.009361702
2.266667	0.009361702
2.283333	0.009361702
2.3	0.009361702
2.316667	0.009361702
2.333333	0.009361702
2.35	0.009361702
2.366667	0.009361702
2.383333	0.009361702
2.4	0.009361702
2.416667	0.009361702
2.433333	0.009361702
2.45	0.009361702
2.466667	0.009361702
2.483333	0.009361702
2.5	0.009361702
2.516667	0.009361702
2.533333	0.009361702
2.55	0.009361702
2.566667	0.009361702
2.583333	0.009361702
2.6	0.009361702
2.616667	0.009361702
2.633333	0.009361702
2.65	0.009361702
2.666667	0.009361702
2.683333	0.009361702
2.7	0.009361702
2.716667	0.009361702
2.733333	0.009361702
2.75	0.004680851
2.766667	0.004680851
2.783333	0.009361702
2.8	0.009361702
2.816667	0.004680851
2.833333	0.004680851
2.85	0.004680851
2.866667	0.004680851
2.883333	0.004680851
2.9	0.009361702
2.916667	0.004680851
2.933333	0.004680851
2.95	0.004680851
2.966667	0.004680851
2.983333	0.004680851
3	0.009361702
3.016667	0.009361702
3.033333	0.009361702
3.05	0.009361702
3.066667	0.004680851
3.083333	0.009361702
3.1	0.009361702
3.116667	0.004680851
3.133333	0.004680851
3.15	0.004680851
3.166667	0.004680851
3.183333	0.004680851
3.2	0.004680851
3.216667	0.004680851
3.233333	0.004680851
3.25	0.004680851
3.266667	0.004680851
3.283333	0.004680851
3.3	0.004680851
3.316667	0.004680851
3.333333	0.004680851
3.35	0.004680851
3.366667	0.004680851
3.383333	0.004680851
3.4	0.004680851
3.416667	0.004680851
3.433333	0.004680851
3.45	0.004680851
3.466667	0.004680851
3.483333	0.004680851
3.5	0.004680851
3.516667	0.004680851
3.533333	0.004680851
3.55	0.004680851
3.566667	0.004680851
3.583333	0.004680851
3.6	0.004680851
3.616667	0.004680851
3.633333	0.004680851
3.65	0.004680851
3.666667	0.004680851
3.683333	0.004680851
3.7	0.004680851
3.716667	0.004680851
3.733333	0.004680851
3.75	0.004680851
3.766667	0.004680851
3.783333	0.004680851
3.8	0.004680851
3.816667	0.004680851
3.833333	0.004680851
3.85	0.004680851
3.866667	0.004680851
3.883333	0.004680851
3.9	0.004680851
3.916667	0.004680851
3.933333	0.004680851
3.95	0.004680851
3.966667	0.004680851
3.983333	0.004680851
4	0.004680851
4.016667	0.004680851
4.033333	0
4.05	0.004680851
4.066667	0
4.083333	0.004680851
4.1	0.004680851
4.116667	0
4.133333	0
4.15	0
4.166667	0
4.183333	0
4.2	0.004680851
4.216667	0.004680851
4.233333	0
4.25	0.004680851
4.266667	0.004680851
4.283333	0.004680851
4.3	0.004680851
4.316667	0.004680851
4.333333	0
4.35	0
4.366667	0
4.383333	0
4.4	0.004680851
4.416667	0.004680851
4.433333	0.004680851
4.45	0.004680851
4.466667	0.004680851
4.483333	0.004680851
4.5	0.004680851
4.516667	0.004680851
4.533333	0.004680851
4.55	0.004680851
4.566667	0.004680851
4.583333	0.004680851
4.6	0.004680851
4.616667	0.004680851
4.633333	0.004680851
4.65	0.004680851
4.666667	0.004680851
4.683333	0.004680851
4.7	0.004680851
4.716667	0.004680851
4.733333	0.004680851
4.75	0.004680851
4.766667	0.004680851
4.783333	0.004680851
4.8	0.004680851
4.816667	0.004680851
4.833333	0.004680851
4.85	0.004680851
4.866667	0.004680851
4.883333	0.004680851
4.9	0.004680851
4.916667	0.004680851
4.933333	0.004680851
4.95	0.004680851
4.966667	0.004680851
4.983333	0.004680851
5	0.004680851
5.016667	0.004680851
5.033333	0.004680851
5.05	0.004680851
5.066667	0.004680851
5.083333	0.004680851
5.1	0.009361702
5.116667	0.004680851
5.133333	0.004680851
5.15	0.004680851
5.166667	0.004680851
5.183333	0.009361702
5.2	0.009361702
5.216667	0.009361702
5.233333	0.009361702
5.25	0.009361702
5.266667	0.009361702
5.283333	0.009361702
5.3	0.009361702
5.316667	0.009361702
5.333333	0.009361702
5.35	0.009361702
5.366667	0.009361702
5.383333	0.009361702
5.4	0.009361702
5.416667	0.009361702
5.433333	0.009361702
5.45	0.009361702
5.466667	0.009361702
5.483333	0.009361702
5.5	0.01404255
5.516667	0.009361702
5.533333	0.009361702
5.55	0.009361702
5.566667	0.009361702
5.583333	0.009361702
5.6	0.01404255
5.616667	0.009361702
5.633333	0.009361702
5.65	0.009361702
5.666667	0.01404255
5.683333	0.01404255
5.7	0.01404255
5.716667	0.01404255
5.733333	0.01404255
5.75	0.01404255
5.766667	0.01404255
5.783333	0.01404255
5.8	0.01404255
5.816667	0.01404255
5.833333	0.01404255
5.85	0.01404255
5.866667	0.01404255
5.883333	0.01404255
5.9	0.01404255
5.916667	0.01404255
5.933333	0.01404255
5.95	0.01404255
5.966667	0.01404255
5.983333	0.01404255
6	0.01404255
6.016667	0.01404255
6.033333	0.01404255
6.05	0.01404255
6.066667	0.01404255
6.083333	0.01404255
6.1	0.01404255
6.116667	0.01404255
6.133333	0.01404255
6.15	0.0187234
6.166667	0.0187234
6.183333	0.02340426
6.2	0.03276596
6.216667	0.04212766
6.233333	0.06085106
6.25	0.08893617
6.266667	0.126383
6.283333	0.187234
6.3	0.2714894
6.316667	0.3744681
6.333333	0.5148936
6.35	0.7068085
6.366667	0.9455319
6.383333	1.249787
6.4	1.619574
6.416667	2.050213
6.433333	2.551064
6.45	3.108085
6.466667	3.707234
6.483333	4.320425
6.5	4.924255
6.516667	5.481277
6.533333	5.982128
6.55	6.431489
6.566667	6.801277
6.583333	7.09617
6.6	7.325532
6.616667	7.484681
6.633333	7.59234
6.65	7.653191
6.666667	7.667234
6.683333	7.648511
6.7	7.59234
6.716667	7.512766
6.733333	7.405106
6.75	7.278723
6.766667	7.138298
6.783333	6.979149
6.8	6.815319
6.816667	6.632766
6.833333	6.445532
6.85	6.244255
6.866667	6.038298
6.883333	5.82766
6.9	5.60766
6.916667	5.38766
6.933333	5.162979
6.95	4.933617
6.966667	4.708936
6.983333	4.488936
7	4.278298
7.016667	4.07234
7.033333	3.866383
7.05	3.665106
7.066667	3.46383
7.083333	3.267234
7.1	3.075319
7.116667	2.888085
7.133333	2.705532
7.15	2.518298
7.166667	2.340426
7.183333	2.176596
7.2	2.022128
7.216667	1.881702
7.233333	1.745957
7.25	1.624255
7.266667	1.516596
7.283333	1.422979
7.3	1.338723
7.316667	1.26383
7.333333	1.198298
7.35	1.137447
7.366667	1.085957
7.383333	1.04383
7.4	1.006383
7.416667	0.973617
7.433333	0.9455319
7.45	0.9221276
7.466667	0.8987234
7.483333	0.88
7.5	0.8612766
7.516667	0.847234
7.533333	0.8285106
7.55	0.8144681
7.566667	0.8004255
7.583333	0.7817021
7.6	0.7676596
7.616667	0.753617
7.633333	0.7348936
7.65	0.7208511
7.666667	0.7068085
7.683333	0.6927659
7.7	0.6787234
7.716667	0.6646808
7.733333	0.6553191
7.75	0.6412766
7.766667	0.6365957
7.783333	0.627234
7.8	0.6225532
7.816667	0.6178723
7.833333	0.6178723
7.85	0.6178723
7.866667	0.6178723
7.883333	0.6178723
7.9	0.6178723
7.916667	0.6225532
7.933333	0.627234
7.95	0.6365957
7.966667	0.6459574
7.983333	0.66
8	0.6740425
8.016667	0.6834042
8.033333	0.6974468
8.05	0.7114894
8.066667	0.7302128
8.083333	0.7442553
8.1	0.7582979
8.116667	0.7676596
8.133333	0.7770213
8.15	0.7817021
8.166667	0.786383
8.183333	0.7817021
8.2	0.7770213
8.216667	0.7629787
8.233333	0.7489362
8.25	0.7255319
8.266667	0.7068085
8.283333	0.6787234
8.3	0.6506383
8.316667	0.6225532
8.333333	0.5897872
8.35	0.5570213
8.366667	0.5289362
8.383333	0.4961702
8.4	0.4634042
8.416667	0.4353191
8.433333	0.4025532
8.45	0.3744681
8.466667	0.346383
8.483333	0.3229787
8.5	0.2995745
8.516667	0.2808511
8.533333	0.2574468
8.55	0.2387234
8.566667	0.2246808
8.583333	0.2059574
8.6	0.1965957
8.616667	0.1825532
8.633333	0.1685106
8.65	0.1591489
8.666667	0.1497872
8.683333	0.1404255
8.7	0.1310638
8.716667	0.126383
8.733333	0.1170213
8.75	0.1076596
8.766667	0.1029787
8.783333	0.09829787
8.8	0.09361702
8.816667	0.08893617
8.833333	0.08425532
8.85	0.07957447
8.866667	0.07489362
8.883333	0.07489362
8.9	0.07021277
8.916667	0.06553191
8.933333	0.06553191
8.95	0.06085106
8.966667	0.06085106
8.983333	0.05617021
9	0.05617021
9.016667	0.05617021
9.033333	0.05148936
9.05	0.05148936
9.066667	0.05148936
9.083333	0.05148936
9.1	0.05148936
9.116667	0.04680851
9.133333	0.04680851
9.15	0.04212766
9.166667	0.04212766
9.183333	0.04212766
9.2	0.04212766
9.216667	0.03744681
9.233333	0.03744681
9.25	0.03744681
9.266667	0.03744681
9.283333	0.03276596
9.3	0.03276596
9.316667	0.03276596
9.333333	0.02808511
9.35	0.02808511
9.366667	0.02808511
9.383333	0.02808511
9.4	0.02340426
9.416667	0.02340426
9.433333	0.02340426
9.45	0.0187234
9.466667	0.0187234
9.483333	0.0187234
9.5	0.01404255
9.516667	0.01404255
9.533333	0.009361702
9.55	0.004680851
9.566667	0
9.583333	-0.009361702
9.6	-0.02808511
9.616667	-0.05617021
9.633333	-0.1029787
9.65	-0.1731915
9.666667	-0.2761702
9.683333	-0.4165957
9.7	-0.6038298
9.716667	-0.8285106
9.733333	-1.090638
9.75	-1.37617
9.766667	-1.675745
9.783333	-1.98
9.8	-2.265532
9.816667	-2.52766
9.833333	-2.757021
9.85	-2.939574
9.866667	-3.08
9.883333	-3.173617
9.9	-3.220425
9.916667	-3.229787
9.933333	-3.211064
9.95	-3.164255
9.966667	-3.098723
9.983333	-3.014468
10	-2.920851
10.01667	-2.822553
10.03333	-2.719574
10.05	-2.621277
10.06667	-2.518298
10.08333	-2.42
10.1	-2.317021
10.11667	-2.218723
10.13333	-2.125106
10.15	-2.031489
10.16667	-1.942553
10.18333	-1.853617
10.2	-1.764681
10.21667	-1.675745
10.23333	-1.59617
10.25	-1.516596
10.26667	-1.437021
10.28333	-1.362128
10.3	-1.296596
10.31667	-1.231064
10.33333	-1.174894
10.35	-1.118723
10.36667	-1.067234
10.38333	-1.020426
10.4	-0.9782979
10.41667	-0.9361702
10.43333	-0.8987234
10.45	-0.8659574
10.46667	-0.8285106
10.48333	-0.7910638
10.5	-0.7489362
10.51667	-0.7068085
10.53333	-0.6646808
10.55	-0.6178723
10.56667	-0.5617021
10.58333	-0.5055319
10.6	-0.4446808
10.61667	-0.3838298
10.63333	-0.3229787
10.65	-0.2574468
10.66667	-0.1965957
10.68333	-0.1404255
10.7	-0.08425532
10.71667	-0.03744681
10.73333	0
10.75	0.03276596
10.76667	0.06085106
10.78333	0.07957447
10.8	0.08893617
10.81667	0.09829787
10.83333	0.09829787
10.85	0.09361702
10.86667	0.08893617
10.88333	0.07957447
10.9	0.07021277
10.91667	0.05617021
10.93333	0.04212766
10.95	0.03276596
10.96667	0.0187234
10.98333	0.004680851
11	-0.004680851
11.01667	-0.0187234
11.03333	-0.03276596
11.05	-0.04212766
11.06667	-0.05617021
11.08333	-0.06553191
11.1	-0.07489362
11.11667	-0.08425532
11.13333	-0.09361702
11.15	-0.1029787
11.16667	-0.1076596
11.18333	-0.1123404
11.2	-0.1123404
11.21667	-0.1170213
11.23333	-0.1170213
11.25	-0.1123404
11.26667	-0.1123404
11.28333	-0.1076596
11.3	-0.09829787
11.31667	-0.09361702
11.33333	-0.08425532
11.35	-0.07957447
11.36667	-0.07021277
11.38333	-0.06085106
11.4	-0.05617021
11.41667	-0.05148936
11.43333	-0.04680851
11.45	-0.04212766
11.46667	-0.03744681
11.48333	-0.03744681
11.5	-0.04212766
11.51667	-0.04680851
11.53333	-0.05148936
11.55	-0.06085106
11.56667	-0.07021277
11.58333	-0.08893617
11.6	-0.1076596
11.61667	-0.1357447
11.63333	-0.1685106
11.65	-0.2106383
11.66667	-0.2621277
11.68333	-0.3229787
11.7	-0.3931915
11.71667	-0.4680851
11.73333	-0.5523404
11.75	-0.6412766
11.76667	-0.7255319
11.78333	-0.8097872
11.8	-0.8893617
11.81667	-0.9595745
11.83333	-1.025106
11.85	-1.071915
11.86667	-1.109362
11.88333	-1.128085
11.9	-1.137447
11.91667	-1.137447
11.93333	-1.128085
11.95	-1.104681
11.96667	-1.076596
11.98333	-1.04383
12	-1.006383
12.01667	-0.9689362
12.03333	-0.9314894
12.05	-0.8940425
12.06667	-0.8565957
12.08333	-0.8238298
12.1	-0.7910638
12.11667	-0.7676596
12.13333	-0.7489362
12.15	-0.7302128
12.16667	-0.7208511
12.18333	-0.7161702
12.2	-0.7114894
12.21667	-0.7161702
12.23333	-0.7208511
12.25	-0.7255319
12.26667	-0.7348936
12.28333	-0.7442553
12.3	-0.753617
12.31667	-0.7629787
12.33333	-0.7676596
12.35	-0.7676596
12.36667	-0.7676596
12.38333	-0.7582979
12.4	-0.7489362
12.41667	-0.7348936
12.43333	-0.7208511
12.45	-0.6974468
12.46667	-0.6787234
12.48333	-0.6506383
12.5	-0.627234
12.51667	-0.5991489
12.53333	-0.5710638
12.55	-0.5476596
12.56667	-0.5195745
12.58333	-0.4914894
12.6	-0.4680851
12.61667	-0.44
12.63333	-0.4165957
12.65	-0.3931915
12.66667	-0.3697872
12.68333	-0.3510638
12.7	-0.3323404
12.71667	-0.313617
12.73333	-0.2948936
12.75	-0.2808511
12.76667	-0.2668085
12.78333	-0.2480851
12.8	-0.2387234
12.81667	-0.2246808
12.83333	-0.2153191
12.85	-0.2059574
12.86667	-0.1919149
12.88333	-0.187234
12.9	-0.1778723
12.91667	-0.1685106
12.93333	-0.1638298
12.95	-0.1544681
12.96667	-0.1497872
12.98333	-0.1451064
13	-0.1404255
13.01667	-0.1310638
13.03333	-0.1310638
13.05	-0.126383
13.06667	-0.1217021
13.08333	-0.1170213
13.1	-0.1123404
13.11667	-0.1076596
13.13333	-0.1029787
13.15	-0.1029787
13.16667	-0.09829787
13.18333	-0.09361702
13.2	-0.08893617
13.21667	-0.08893617
13.23333	-0.08425532
13.25	-0.08425532
13.26667	-0.07957447
13.28333	-0.07957447
13.3	-0.07489362
13.31667	-0.07021277
13.33333	-0.07021277
13.35	-0.07021277
13.36667	-0.07021277
13.38333	-0.06553191
13.4	-0.06553191
13.41667	-0.06553191
13.43333	-0.06085106
13.45	-0.06085106
13.46667	-0.06085106
13.48333	-0.06085106
13.5	-0.05617021
13.51667	-0.05617021
13.53333	-0.05617021
13.55	-0.05617021
13.56667	-0.05617021
13.58333	-0.05148936
13.6	-0.05148936
13.61667	-0.05148936
13.63333	-0.05148936
13.65	-0.05148936
13.66667	-0.05148936
13.68333	-0.04680851
13.7	-0.04680851
13.71667	-0.04680851
13.73333	-0.04680851
13.75	-0.04680851
13.76667	-0.04680851
13.78333	-0.04680851
13.8	-0.04680851
13.81667	-0.04680851
13.83333	-0.04680851
13.85	-0.04680851
13.86667	-0.04680851
13.88333	-0.04680851
13.9	-0.04680851
13.91667	-0.04680851
13.93333	-0.04680851
13.95	-0.05148936
13.96667	-0.05148936
13.98333	-0.05148936
14	-0.05148936
14.01667	-0.05148936
14.03333	-0.05148936
14.05	-0.05148936
14.06667	-0.05148936
14.08333	-0.05148936
14.1	-0.05148936
14.11667	-0.05148936
14.13333	-0.05148936
14.15	-0.05148936
14.16667	-0.05148936
14.18333	-0.05148936
14.2	-0.05148936
14.21667	-0.05148936
14.23333	-0.05148936
14.25	-0.05148936
14.26667	-0.05617021
14.28333	-0.05148936
14.3	-0.05148936
14.31667	-0.05617021
14.33333	-0.05617021
14.35	-0.05617021
14.36667	-0.05617021
14.38333	-0.05617021
14.4	-0.05148936
14.41667	-0.05148936
14.43333	-0.05148936
14.45	-0.05148936
14.46667	-0.05148936
14.48333	-0.05148936
14.5	-0.05148936
14.51667	-0.05148936
14.53333	-0.05148936
14.55	-0.05148936
14.56667	-0.04680851
14.58333	-0.04680851
14.6	-0.04680851
14.61667	-0.04680851
14.63333	-0.04680851
14.65	-0.04680851
14.66667	-0.04212766
14.68333	-0.04212766
14.7	-0.04212766
14.71667	-0.04212766
14.73333	-0.04212766
14.75	-0.03744681
14.76667	-0.03744681
14.78333	-0.03744681
14.8	-0.03744681
14.81667	-0.03744681
14.83333	-0.03276596
14.85	-0.03276596
14.86667	-0.03276596
14.88333	-0.03276596
14.9	-0.02808511
14.91667	-0.02808511
14.93333	-0.02808511
14.95	-0.02808511
14.96667	-0.02808511
14.98333	-0.02808511
15	-0.02340426
15.01667	-0.02340426
15.03333	-0.02340426
15.05	-0.02340426
15.06667	-0.0187234
15.08333	-0.0187234
15.1	-0.0187234
15.11667	-0.0187234
15.13333	-0.0187234
15.15	-0.01404255
15.16667	-0.01404255
15.18333	-0.01404255
15.2	-0.01404255
15.21667	-0.009361702
15.23333	-0.009361702
15.25	-0.009361702
15.26667	-0.009361702
15.28333	-0.009361702
15.3	-0.009361702
15.31667	-0.004680851
15.33333	-0.009361702
15.35	-0.004680851
15.36667	-0.004680851
15.38333	-0.004680851
15.4	-0.004680851
15.41667	-0.004680851
15.43333	0
15.45	0
15.46667	0
15.48333	0
15.5	0
15.51667	0
15.53333	0
15.55	0
15.56667	0
15.58333	0
15.6	0.004680851
15.61667	0.004680851
15.63333	0.004680851
15.65	0.004680851
15.66667	0.004680851
15.68333	0.004680851
15.7	0.004680851
15.71667	0.004680851
15.73333	0.004680851
15.75	0.004680851
15.76667	0.004680851
15.78333	0.004680851
15.8	0.009361702
15.81667	0.009361702
15.83333	0.009361702
15.85	0.009361702
15.86667	0.009361702
15.88333	0.009361702
15.9	0.009361702
15.91667	0.009361702
15.93333	0.009361702
15.95	0.009361702
15.96667	0.009361702
15.98333	0.009361702
16	0.009361702
16.01667	0.009361702
16.03333	0.009361702
16.05	0.009361702
16.06667	0.009361702
16.08333	0.009361702
16.1	0.009361702
16.11667	0.009361702
16.13333	0.009361702
16.15	0.009361702
16.16667	0.009361702
16.18333	0.009361702
16.2	0.009361702
16.21667	0.009361702
16.23333	0.009361702
16.25	0.009361702
16.26667	0.009361702
16.28333	0.009361702
16.3	0.009361702
16.31667	0.009361702
16.33333	0.009361702
16.35	0.009361702
16.36667	0.009361702
16.38333	0.009361702
16.4	0.009361702
16.41667	0.009361702
16.43333	0.009361702
16.45	0.009361702
16.46667	0.009361702
16.48333	0.009361702
16.5	0.009361702
16.51667	0.009361702
16.53333	0.009361702
16.55	0.009361702
16.56667	0.009361702
16.58333	0.009361702
16.6	0.009361702
16.61667	0.009361702
16.63333	0.009361702
16.65	0.009361702
16.66667	0.009361702
16.68333	0.009361702
16.7	0.01404255
16.71667	0.01404255
16.73333	0.009361702
16.75	0.009361702
16.76667	0.009361702
16.78333	0.009361702
16.8	0.009361702
16.81667	0.009361702
16.83333	0.009361702
16.85	0.009361702
16.86667	0.009361702
16.88333	0.009361702
16.9	0.01404255
16.91667	0.009361702
16.93333	0.009361702
16.95	0.009361702
16.96667	0.009361702
16.98333	0.009361702
17	0.009361702
17.01667	0.009361702
17.03333	0.009361702
17.05	0.009361702
17.06667	0.009361702
17.08333	0.009361702
17.1	0.009361702
17.11667	0.009361702
17.13333	0.009361702
17.15	0.009361702
17.16667	0.009361702
17.18333	0.009361702
17.2	0.009361702
17.21667	0.009361702
17.23333	0.009361702
17.25	0.009361702
17.26667	0.009361702
17.28333	0.01404255
17.3	0.01404255
17.31667	0.009361702
17.33333	0.009361702
17.35	0.009361702
17.36667	0.009361702
17.38333	0.009361702
17.4	0.01404255
17.41667	0.009361702
17.43333	0.009361702
17.45	0.009361702
17.46667	0.009361702
17.48333	0.01404255
17.5	0.01404255
17.51667	0.01404255
17.53333	0.01404255
17.55	0.01404255
17.56667	0.01404255
17.58333	0.01404255
17.6	0.01404255
17.61667	0.01404255
17.63333	0.01404255
17.65	0.01404255
17.66667	0.01404255
17.68333	0.01404255
17.7	0.01404255
17.71667	0.01404255
17.73333	0.01404255
17.75	0.01404255
17.76667	0.01404255
17.78333	0.01404255
17.8	0.01404255
17.81667	0.01404255
17.83333	0.01404255
17.85	0.01404255
17.86667	0.01404255
17.88333	0.01404255
17.9	0.01404255
17.91667	0.01404255
17.93333	0.01404255
17.95	0.01404255
17.96667	0.01404255
17.98333	0.01404255
18	0.01404255
18.01667	0.01404255
18.03333	0.01404255
18.05	0.01404255
18.06667	0.01404255
18.08333	0.01404255
18.1	0.01404255
18.11667	0.01404255
18.13333	0.01404255
18.15	0.01404255
18.16667	0.01404255
18.18333	0.01404255
18.2	0.01404255
18.21667	0.01404255
18.23333	0.01404255
18.25	0.01404255
18.26667	0.01404255
18.28333	0.01404255
18.3	0.01404255
18.31667	0.01404255
18.33333	0.01404255
18.35	0.01404255
18.36667	0.01404255
18.38333	0.01404255
18.4	0.01404255
18.41667	0.01404255
18.43333	0.01404255
18.45	0.01404255
18.46667	0.01404255
18.48333	0.01404255
18.5	0.01404255
18.51667	0.01404255
18.53333	0.01404255
18.55	0.01404255
18.56667	0.01404255
18.58333	0.01404255
18.6	0.01404255
18.61667	0.01404255
18.63333	0.01404255
18.65	0.01404255
18.66667	0.01404255
18.68333	0.01404255
18.7	0.01404255
18.71667	0.01404255
18.73333	0.01404255
18.75	0.01404255
18.76667	0.01404255
18.78333	0.01404255
18.8	0.01404255
18.81667	0.01404255
18.83333	0.01404255
18.85	0.01404255
18.86667	0.01404255
18.88333	0.0187234
18.9	0.0187234
18.91667	0.01404255
18.93333	0.01404255
18.95	0.01404255
18.96667	0.01404255
18.98333	0.01404255
19	0.01404255
19.01667	0.01404255
19.03333	0.01404255
19.05	0.01404255
19.06667	0.01404255
19.08333	0.01404255
19.1	0.01404255
19.11667	0.01404255
19.13333	0.01404255
19.15	0.01404255
19.16667	0.01404255
19.18333	0.01404255
19.2	0.01404255
19.21667	0.01404255
19.23333	0.01404255
19.25	0.01404255
19.26667	0.01404255
19.28333	0.01404255
19.3	0.01404255
19.31667	0.01404255
19.33333	0.01404255
19.35	0.01404255
19.36667	0.01404255
19.38333	0.01404255
19.4	0.01404255
19.41667	0.01404255
19.43333	0.01404255
19.45	0.01404255
19.46667	0.01404255
19.48333	0.01404255
19.5	0.01404255
19.51667	0.01404255
19.53333	0.01404255
19.55	0.01404255
19.56667	0.01404255
19.58333	0.01404255
19.6	0.01404255
19.61667	0.01404255
19.63333	0.01404255
19.65	0.01404255
19.66667	0.01404255
19.68333	0.01404255
19.7	0.01404255
19.71667	0.01404255
19.73333	0.01404255
19.75	0.01404255
19.76667	0.01404255
19.78333	0.01404255
19.8	0.01404255
19.81667	0.01404255
19.83333	0.01404255
19.85	0.01404255
19.86667	0.01404255
19.88333	0.01404255
19.9	0.01404255
19.91667	0.01404255
19.93333	0.01404255
19.95	0.01404255
19.96667	0.01404255
19.98333	0.01404255
20	0.01404255
