"Sample Set Id"	1752
"Sample Set Name"	"sad100124HPA"
"System Name"	"System III"
"Instrument Method Name"	"System 3_RI"
"SampleName"	"PMMA1.93kDa"
"Injection"	1
"Vial"	"2"
"Channel"	"410 "
0.01666667	-3.571489
0.03333333	-1.37617
0.05	-0.533617
0.06666667	-0.2059574
0.08333333	-0.07957447
0.1	-0.03276596
0.1166667	-0.01404255
0.1333333	-0.004680851
0.15	-0.004680851
0.1666667	0
0.1833333	-0.009361702
0.2	-0.03744681
0.2166667	-0.07021277
0.2333333	-0.1123404
0.25	-0.1451064
0.2666667	-0.1404255
0.2833333	-0.1404255
0.3	-0.1497872
0.3166667	-0.1638298
0.3333333	-0.1825532
0.35	-0.2012766
0.3666667	-0.1919149
0.3833333	-0.1919149
0.4	-0.1965957
0.4166667	-0.2059574
0.4333333	-0.2153191
0.45	-0.2293617
0.4666667	-0.2059574
0.4833333	-0.1919149
0.5	-0.187234
0.5166667	-0.1919149
0.5333333	-0.2012766
0.55	-0.2153191
0.5666667	-0.2012766
0.5833333	-0.1965957
0.6	-0.2012766
0.6166667	-0.2059574
0.6333333	-0.2153191
0.65	-0.2293617
0.6666667	-0.2012766
0.6833333	-0.1825532
0.7	-0.1778723
0.7166667	-0.1825532
0.7333333	-0.1965957
0.75	-0.2106383
0.7666667	-0.2012766
0.7833333	-0.1965957
0.8	-0.2012766
0.8166667	-0.2059574
0.8333333	-0.22
0.85	-0.2293617
0.8666667	-0.2059574
0.8833333	-0.187234
0.9	-0.1825532
0.9166667	-0.1919149
0.9333333	-0.2012766
0.95	-0.2153191
0.9666667	-0.2059574
0.9833333	-0.2012766
1	-0.2059574
1.016667	-0.2106383
1.033333	-0.2246808
1.05	-0.2387234
1.066667	-0.2153191
1.083333	-0.2012766
1.1	-0.1965957
1.116667	-0.2012766
1.133333	-0.2153191
1.15	-0.2293617
1.166667	-0.22
1.183333	-0.2153191
1.2	-0.2153191
1.216667	-0.2246808
1.233333	-0.2387234
1.25	-0.2480851
1.266667	-0.2246808
1.283333	-0.2106383
1.3	-0.2059574
1.316667	-0.2106383
1.333333	-0.2246808
1.35	-0.2387234
1.366667	-0.2293617
1.383333	-0.2246808
1.4	-0.2293617
1.416667	-0.2387234
1.433333	-0.252766
1.45	-0.2621277
1.466667	-0.2387234
1.483333	-0.2246808
1.5	-0.22
1.516667	-0.2293617
1.533333	-0.2387234
1.55	-0.252766
1.566667	-0.2434043
1.583333	-0.2387234
1.6	-0.2434043
1.616667	-0.2480851
1.633333	-0.2621277
1.65	-0.2761702
1.666667	-0.252766
1.683333	-0.2387234
1.7	-0.2340426
1.716667	-0.2387234
1.733333	-0.252766
1.75	-0.2668085
1.766667	-0.2574468
1.783333	-0.252766
1.8	-0.2574468
1.816667	-0.2621277
1.833333	-0.2761702
1.85	-0.2902128
1.866667	-0.2668085
1.883333	-0.252766
1.9	-0.252766
1.916667	-0.2574468
1.933333	-0.2714894
1.95	-0.2855319
1.966667	-0.2761702
1.983333	-0.2714894
2	-0.2761702
2.016667	-0.2808511
2.033333	-0.2948936
2.05	-0.3089362
2.066667	-0.2808511
2.083333	-0.2621277
2.1	-0.2574468
2.116667	-0.2621277
2.133333	-0.2761702
2.15	-0.2902128
2.166667	-0.2808511
2.183333	-0.2761702
2.2	-0.2808511
2.216667	-0.2902128
2.233333	-0.3042553
2.25	-0.3182979
2.266667	-0.2948936
2.283333	-0.2808511
2.3	-0.2761702
2.316667	-0.2808511
2.333333	-0.2948936
2.35	-0.3089362
2.366667	-0.2995745
2.383333	-0.2948936
2.4	-0.2995745
2.416667	-0.3089362
2.433333	-0.3229787
2.45	-0.3370213
2.466667	-0.313617
2.483333	-0.2995745
2.5	-0.2948936
2.516667	-0.3042553
2.533333	-0.313617
2.55	-0.3276596
2.566667	-0.3182979
2.583333	-0.313617
2.6	-0.3182979
2.616667	-0.3276596
2.633333	-0.3417021
2.65	-0.3557447
2.666667	-0.3323404
2.683333	-0.3229787
2.7	-0.3182979
2.716667	-0.3229787
2.733333	-0.3370213
2.75	-0.346383
2.766667	-0.3417021
2.783333	-0.3370213
2.8	-0.3370213
2.816667	-0.346383
2.833333	-0.3604255
2.85	-0.3697872
2.866667	-0.3510638
2.883333	-0.3323404
2.9	-0.3323404
2.916667	-0.3370213
2.933333	-0.3510638
2.95	-0.3651064
2.966667	-0.3557447
2.983333	-0.3557447
3	-0.3604255
3.016667	-0.3651064
3.033333	-0.3791489
3.05	-0.3931915
3.066667	-0.3697872
3.083333	-0.3557447
3.1	-0.3510638
3.116667	-0.3557447
3.133333	-0.3697872
3.15	-0.3838298
3.166667	-0.3791489
3.183333	-0.3744681
3.2	-0.3791489
3.216667	-0.3885106
3.233333	-0.3978723
3.25	-0.4119149
3.266667	-0.3885106
3.283333	-0.3744681
3.3	-0.3697872
3.316667	-0.3744681
3.333333	-0.3885106
3.35	-0.3978723
3.366667	-0.3931915
3.383333	-0.3885106
3.4	-0.3931915
3.416667	-0.4025532
3.433333	-0.4165957
3.45	-0.4306383
3.466667	-0.407234
3.483333	-0.3978723
3.5	-0.3931915
3.516667	-0.4025532
3.533333	-0.4119149
3.55	-0.4259574
3.566667	-0.4212766
3.583333	-0.4165957
3.6	-0.4212766
3.616667	-0.4259574
3.633333	-0.44
3.65	-0.4540425
3.666667	-0.4306383
3.683333	-0.4165957
3.7	-0.4119149
3.716667	-0.4212766
3.733333	-0.4306383
3.75	-0.4446808
3.766667	-0.44
3.783333	-0.4353191
3.8	-0.44
3.816667	-0.4446808
3.833333	-0.4587234
3.85	-0.472766
3.866667	-0.4540425
3.883333	-0.4353191
3.9	-0.4353191
3.916667	-0.44
3.933333	-0.4540425
3.95	-0.4680851
3.966667	-0.4634042
3.983333	-0.4587234
4	-0.4634042
4.016667	-0.4680851
4.033333	-0.4821277
4.05	-0.4961702
4.066667	-0.472766
4.083333	-0.4587234
4.1	-0.4587234
4.116667	-0.4634042
4.133333	-0.4774468
4.15	-0.4914894
4.166667	-0.4868085
4.183333	-0.4821277
4.2	-0.4868085
4.216667	-0.4914894
4.233333	-0.5102128
4.25	-0.5195745
4.266667	-0.5008511
4.283333	-0.4868085
4.3	-0.4821277
4.316667	-0.4914894
4.333333	-0.5008511
4.35	-0.5148936
4.366667	-0.5102128
4.383333	-0.5055319
4.4	-0.5102128
4.416667	-0.5195745
4.433333	-0.533617
4.45	-0.5476596
4.466667	-0.5289362
4.483333	-0.5148936
4.5	-0.5148936
4.516667	-0.5195745
4.533333	-0.533617
4.55	-0.5476596
4.566667	-0.5382979
4.583333	-0.533617
4.6	-0.5382979
4.616667	-0.5429787
4.633333	-0.5570213
4.65	-0.5710638
4.666667	-0.5476596
4.683333	-0.5289362
4.7	-0.5242553
4.716667	-0.533617
4.733333	-0.5476596
4.75	-0.5617021
4.766667	-0.5523404
4.783333	-0.5523404
4.8	-0.5570213
4.816667	-0.566383
4.833333	-0.5804255
4.85	-0.5944681
4.866667	-0.5710638
4.883333	-0.5570213
4.9	-0.5523404
4.916667	-0.5617021
4.933333	-0.5710638
4.95	-0.5851064
4.966667	-0.5804255
4.983333	-0.5804255
5	-0.5851064
5.016667	-0.5944681
5.033333	-0.6085106
5.05	-0.6225532
5.066667	-0.6038298
5.083333	-0.5897872
5.1	-0.5897872
5.116667	-0.5944681
5.133333	-0.6085106
5.15	-0.6225532
5.166667	-0.6131915
5.183333	-0.6131915
5.2	-0.6178723
5.216667	-0.6225532
5.233333	-0.6365957
5.25	-0.6506383
5.266667	-0.6319149
5.283333	-0.6178723
5.3	-0.6178723
5.316667	-0.6225532
5.333333	-0.6365957
5.35	-0.6506383
5.366667	-0.6412766
5.383333	-0.6412766
5.4	-0.6459574
5.416667	-0.6506383
5.433333	-0.6646808
5.45	-0.6787234
5.466667	-0.66
5.483333	-0.6459574
5.5	-0.6459574
5.516667	-0.6506383
5.533333	-0.6646808
5.55	-0.6787234
5.566667	-0.6740425
5.583333	-0.6740425
5.6	-0.6787234
5.616667	-0.6880851
5.633333	-0.7021277
5.65	-0.7161702
5.666667	-0.6927659
5.683333	-0.6787234
5.7	-0.6787234
5.716667	-0.6834042
5.733333	-0.6974468
5.75	-0.7114894
5.766667	-0.7068085
5.783333	-0.7021277
5.8	-0.7068085
5.816667	-0.7161702
5.833333	-0.7302128
5.85	-0.7442553
5.866667	-0.7255319
5.883333	-0.7068085
5.9	-0.7068085
5.916667	-0.7114894
5.933333	-0.7255319
5.95	-0.7395745
5.966667	-0.7348936
5.983333	-0.7302128
6	-0.7348936
6.016667	-0.7442553
6.033333	-0.7582979
6.05	-0.7723404
6.066667	-0.7489362
6.083333	-0.7395745
6.1	-0.7348936
6.116667	-0.7442553
6.133333	-0.7582979
6.15	-0.7723404
6.166667	-0.7676596
6.183333	-0.7676596
6.2	-0.7723404
6.216667	-0.7770213
6.233333	-0.7910638
6.25	-0.8051064
6.266667	-0.786383
6.283333	-0.7770213
6.3	-0.7770213
6.316667	-0.7817021
6.333333	-0.7957447
6.35	-0.8097872
6.366667	-0.8051064
6.383333	-0.8004255
6.4	-0.8051064
6.416667	-0.8144681
6.433333	-0.8285106
6.45	-0.8425532
6.466667	-0.8238298
6.483333	-0.8097872
6.5	-0.8097872
6.516667	-0.8144681
6.533333	-0.8285106
6.55	-0.8425532
6.566667	-0.8378723
6.583333	-0.8378723
6.6	-0.8425532
6.616667	-0.8519149
6.633333	-0.8659574
6.65	-0.88
6.666667	-0.8612766
6.683333	-0.847234
6.7	-0.847234
6.716667	-0.8519149
6.733333	-0.8659574
6.75	-0.88
6.766667	-0.8753191
6.783333	-0.8706383
6.8	-0.8753191
6.816667	-0.8846808
6.833333	-0.8987234
6.85	-0.9080851
6.866667	-0.8893617
6.883333	-0.8753191
6.9	-0.8753191
6.916667	-0.88
6.933333	-0.8940425
6.95	-0.9127659
6.966667	-0.9034042
6.983333	-0.9034042
7	-0.9080851
7.016667	-0.9127659
7.033333	-0.9314894
7.05	-0.9408511
7.066667	-0.9221276
7.083333	-0.9080851
7.1	-0.9080851
7.116667	-0.9127659
7.133333	-0.9268085
7.15	-0.9408511
7.166667	-0.9361702
7.183333	-0.9361702
7.2	-0.9408511
7.216667	-0.9502128
7.233333	-0.9642553
7.25	-0.9782979
7.266667	-0.9595745
7.283333	-0.9502128
7.3	-0.9455319
7.316667	-0.9548936
7.333333	-0.9642553
7.35	-0.9829787
7.366667	-0.973617
7.383333	-0.973617
7.4	-0.9782979
7.416667	-0.9876596
7.433333	-1.001702
7.45	-1.015745
7.466667	-0.9970213
7.483333	-0.9876596
7.5	-0.9829787
7.516667	-0.9923404
7.533333	-1.006383
7.55	-1.020426
7.566667	-1.011064
7.583333	-1.011064
7.6	-1.015745
7.616667	-1.020426
7.633333	-1.034468
7.65	-1.048511
7.666667	-1.029787
7.683333	-1.015745
7.7	-1.015745
7.716667	-1.020426
7.733333	-1.034468
7.75	-1.048511
7.766667	-1.04383
7.783333	-1.04383
7.8	-1.048511
7.816667	-1.053191
7.833333	-1.067234
7.85	-1.081277
7.866667	-1.067234
7.883333	-1.057872
7.9	-1.053191
7.916667	-1.062553
7.933333	-1.071915
7.95	-1.090638
7.966667	-1.081277
7.983333	-1.081277
8	-1.085957
8.016667	-1.090638
8.033333	-1.104681
8.05	-1.118723
8.066667	-1.1
8.083333	-1.085957
8.1	-1.085957
8.116667	-1.090638
8.133333	-1.1
8.15	-1.118723
8.166667	-1.109362
8.183333	-1.104681
8.2	-1.109362
8.216667	-1.118723
8.233333	-1.132766
8.25	-1.146808
8.266667	-1.128085
8.283333	-1.114043
8.3	-1.114043
8.316667	-1.123404
8.333333	-1.137447
8.35	-1.15617
8.366667	-1.151489
8.383333	-1.151489
8.4	-1.160851
8.416667	-1.170213
8.433333	-1.188936
8.45	-1.202979
8.466667	-1.184255
8.483333	-1.174894
8.5	-1.174894
8.516667	-1.179574
8.533333	-1.193617
8.55	-1.202979
8.566667	-1.198298
8.583333	-1.188936
8.6	-1.188936
8.616667	-1.184255
8.633333	-1.184255
8.65	-1.184255
8.666667	-1.137447
8.683333	-1.095319
8.7	-1.053191
8.716667	-1.006383
8.733333	-0.9548936
8.75	-0.8940425
8.766667	-0.7910638
8.783333	-0.6834042
8.8	-0.5523404
8.816667	-0.4119149
8.833333	-0.252766
8.85	-0.07957447
8.866667	0.1404255
8.883333	0.3744681
8.9	0.6131915
8.916667	0.8519149
8.933333	1.090638
8.95	1.329362
8.966667	1.591489
8.983333	1.839574
9	2.073617
9.016667	2.288936
9.033333	2.480851
9.05	2.654043
9.066667	2.831915
9.083333	2.981702
9.1	3.094043
9.116667	3.168936
9.133333	3.215745
9.15	3.229787
9.166667	3.24383
9.183333	3.229787
9.2	3.19234
9.216667	3.131489
9.233333	3.047234
9.25	2.944255
9.266667	2.864681
9.283333	2.771064
9.3	2.654043
9.316667	2.522979
9.333333	2.382553
9.35	2.237447
9.366667	2.111064
9.383333	1.975319
9.4	1.839574
9.416667	1.70383
9.433333	1.558723
9.45	1.418298
9.466667	1.315319
9.483333	1.20766
9.5	1.095319
9.516667	0.9782979
9.533333	0.8565957
9.55	0.7348936
9.566667	0.6412766
9.583333	0.5429787
9.6	0.4446808
9.616667	0.346383
9.633333	0.2434043
9.65	0.1404255
9.666667	0.07021277
9.683333	-0.01404255
9.7	-0.1170213
9.716667	-0.2387234
9.733333	-0.3838298
9.75	-0.5617021
9.766667	-0.7442553
9.783333	-0.9595745
9.8	-1.21234
9.816667	-1.497872
9.833333	-1.811489
9.85	-2.14383
9.866667	-2.448085
9.883333	-2.757021
9.9	-3.070638
9.916667	-3.384255
9.933333	-3.702553
9.95	-4.01617
9.966667	-4.325106
9.983333	-4.671489
10	-5.069362
10.01667	-5.542128
10.03333	-6.108511
10.05	-6.749787
10.06667	-7.414468
10.08333	-8.097872
10.1	-8.757872
10.11667	-9.342979
10.13333	-9.811064
10.15	-10.12468
10.16667	-10.25574
10.18333	-10.23234
10.2	-10.07319
10.21667	-9.806383
10.23333	-9.46
10.25	-9.052766
10.26667	-8.584681
10.28333	-8.107234
10.3	-7.648511
10.31667	-7.213191
10.33333	-6.801277
10.35	-6.422128
10.36667	-6.05234
10.38333	-5.724681
10.4	-5.425106
10.41667	-5.162979
10.43333	-4.933617
10.45	-4.73234
10.46667	-4.521702
10.48333	-4.339149
10.5	-4.18
10.51667	-4.048936
10.53333	-3.927234
10.55	-3.824255
10.56667	-3.702553
10.58333	-3.594894
10.6	-3.496596
10.61667	-3.40766
10.63333	-3.323404
10.65	-3.24383
10.66667	-3.13617
10.68333	-3.033191
10.7	-2.934894
10.71667	-2.845957
10.73333	-2.761702
10.75	-2.672766
10.76667	-2.565106
10.78333	-2.457447
10.8	-2.354468
10.81667	-2.25617
10.83333	-2.171915
10.85	-2.082979
10.86667	-1.98
10.88333	-1.881702
10.9	-1.806808
10.91667	-1.741277
10.93333	-1.699149
10.95	-1.661702
10.96667	-1.614894
10.98333	-1.586808
11	-1.563404
11.01667	-1.549362
11.03333	-1.549362
11.05	-1.554043
11.06667	-1.535319
11.08333	-1.521277
11.1	-1.525957
11.11667	-1.530638
11.13333	-1.549362
11.15	-1.572766
11.16667	-1.577447
11.18333	-1.582128
11.2	-1.59617
11.21667	-1.614894
11.23333	-1.642979
11.25	-1.666383
11.26667	-1.661702
11.28333	-1.661702
11.3	-1.675745
11.31667	-1.694468
11.33333	-1.717872
11.35	-1.745957
11.36667	-1.750638
11.38333	-1.76
11.4	-1.774043
11.41667	-1.788085
11.43333	-1.806808
11.45	-1.820851
11.46667	-1.806808
11.48333	-1.792766
11.5	-1.792766
11.51667	-1.797447
11.53333	-1.811489
11.55	-1.825532
11.56667	-1.81617
11.58333	-1.81617
11.6	-1.820851
11.61667	-1.825532
11.63333	-1.844255
11.65	-1.858298
11.66667	-1.839574
11.68333	-1.830213
11.7	-1.830213
11.71667	-1.844255
11.73333	-1.862979
11.75	-1.881702
11.76667	-1.886383
11.78333	-1.900426
11.8	-1.919149
11.81667	-1.947234
11.83333	-1.984681
11.85	-2.031489
11.86667	-2.054894
11.88333	-2.08766
11.9	-2.139149
11.91667	-2.2
11.93333	-2.279574
11.95	-2.36383
11.96667	-2.424681
11.98333	-2.494894
12	-2.565106
12.01667	-2.635319
12.03333	-2.705532
12.05	-2.766383
12.06667	-2.789787
12.08333	-2.80383
12.1	-2.822553
12.11667	-2.836596
12.13333	-2.850638
12.15	-2.86
12.16667	-2.841277
12.18333	-2.822553
12.2	-2.80383
12.21667	-2.785106
12.23333	-2.775745
12.25	-2.761702
12.26667	-2.719574
12.28333	-2.677447
12.3	-2.654043
12.31667	-2.635319
12.33333	-2.625957
12.35	-2.621277
12.36667	-2.597872
12.38333	-2.579149
12.4	-2.569787
12.41667	-2.565106
12.43333	-2.574468
12.45	-2.579149
12.46667	-2.555745
12.48333	-2.541702
12.5	-2.53234
12.51667	-2.537021
12.53333	-2.546383
12.55	-2.560426
12.56667	-2.546383
12.58333	-2.537021
12.6	-2.522979
12.61667	-2.513617
12.63333	-2.508936
12.65	-2.494894
12.66667	-2.452766
12.68333	-2.410638
12.7	-2.377872
12.71667	-2.349787
12.73333	-2.326383
12.75	-2.30766
12.76667	-2.265532
12.78333	-2.228085
12.8	-2.195319
12.81667	-2.167234
12.83333	-2.14383
12.85	-2.120426
12.86667	-2.068936
12.88333	-2.022128
12.9	-1.989362
12.91667	-1.961277
12.93333	-1.942553
12.95	-1.92383
12.96667	-1.891064
12.98333	-1.858298
13	-1.830213
13.01667	-1.811489
13.03333	-1.797447
13.05	-1.783404
13.06667	-1.745957
13.08333	-1.708511
13.1	-1.685106
13.11667	-1.666383
13.13333	-1.65234
13.15	-1.642979
13.16667	-1.614894
13.18333	-1.591489
13.2	-1.568085
13.21667	-1.554043
13.23333	-1.54
13.25	-1.530638
13.26667	-1.488511
13.28333	-1.455745
13.3	-1.43234
13.31667	-1.413617
13.33333	-1.404255
13.35	-1.394894
13.36667	-1.366808
13.38333	-1.343404
13.4	-1.32
13.41667	-1.305957
13.43333	-1.291915
13.45	-1.282553
13.46667	-1.240426
13.48333	-1.202979
13.5	-1.179574
13.51667	-1.160851
13.53333	-1.146808
13.55	-1.137447
13.56667	-1.104681
13.58333	-1.081277
13.6	-1.062553
13.61667	-1.04383
13.63333	-1.029787
13.65	-1.015745
13.66667	-0.973617
13.68333	-0.9408511
13.7	-0.9127659
13.71667	-0.8940425
13.73333	-0.88
13.75	-0.8706383
13.76667	-0.8378723
13.78333	-0.8144681
13.8	-0.7910638
13.81667	-0.7723404
13.83333	-0.7582979
13.85	-0.7442553
13.86667	-0.7068085
13.88333	-0.6693617
13.9	-0.6412766
13.91667	-0.6225532
13.93333	-0.6085106
13.95	-0.5944681
13.96667	-0.566383
13.98333	-0.5382979
14	-0.5195745
14.01667	-0.5008511
14.03333	-0.4821277
14.05	-0.472766
14.06667	-0.4306383
14.08333	-0.3931915
14.1	-0.3651064
14.11667	-0.346383
14.13333	-0.3323404
14.15	-0.3182979
14.16667	-0.2855319
14.18333	-0.2621277
14.2	-0.2387234
14.21667	-0.22
14.23333	-0.2059574
14.25	-0.1919149
14.26667	-0.1497872
14.28333	-0.1170213
14.3	-0.08893617
14.31667	-0.07021277
14.33333	-0.05148936
14.35	-0.03744681
14.36667	-0.009361702
14.38333	0.0187234
14.4	0.03744681
14.41667	0.06085106
14.43333	0.07489362
14.45	0.08893617
14.46667	0.126383
14.48333	0.1638298
14.5	0.187234
14.51667	0.2106383
14.53333	0.2246808
14.55	0.2387234
14.56667	0.2714894
14.58333	0.2948936
14.6	0.3182979
14.61667	0.3417021
14.63333	0.3557447
14.65	0.3744681
14.66667	0.407234
14.68333	0.4446808
14.7	0.4680851
14.71667	0.4914894
14.73333	0.5102128
14.75	0.5289362
14.76667	0.5570213
14.78333	0.5851064
14.8	0.6085106
14.81667	0.627234
14.83333	0.6459574
14.85	0.6646808
14.86667	0.7021277
14.88333	0.7348936
14.9	0.7629787
14.91667	0.786383
14.93333	0.8051064
14.95	0.8191489
14.96667	0.8519149
14.98333	0.88
15	0.9034042
15.01667	0.9221276
15.03333	0.9408511
15.05	0.9595745
15.06667	0.9970213
15.08333	1.029787
15.1	1.057872
15.11667	1.081277
15.13333	1.1
15.15	1.114043
15.16667	1.142128
15.18333	1.170213
15.2	1.193617
15.21667	1.21234
15.23333	1.231064
15.25	1.249787
15.26667	1.287234
15.28333	1.32
15.3	1.348085
15.31667	1.366808
15.33333	1.385532
15.35	1.399574
15.36667	1.42766
15.38333	1.455745
15.4	1.479149
15.41667	1.497872
15.43333	1.516596
15.45	1.535319
15.46667	1.568085
15.48333	1.600851
15.5	1.624255
15.51667	1.64766
15.53333	1.666383
15.55	1.685106
15.56667	1.708511
15.58333	1.736596
15.6	1.76
15.61667	1.778723
15.63333	1.797447
15.65	1.81617
15.66667	1.848936
15.68333	1.877021
15.7	1.905106
15.71667	1.92383
15.73333	1.942553
15.75	1.961277
15.76667	1.984681
15.78333	2.012766
15.8	2.031489
15.81667	2.054894
15.83333	2.068936
15.85	2.08766
15.86667	2.120426
15.88333	2.148511
15.9	2.171915
15.91667	2.190638
15.93333	2.209362
15.95	2.228085
15.96667	2.251489
15.98333	2.274894
16	2.298298
16.01667	2.317021
16.03333	2.335745
16.05	2.349787
16.06667	2.382553
16.08333	2.410638
16.1	2.434043
16.11667	2.452766
16.13333	2.471489
16.15	2.485532
16.16667	2.508936
16.18333	2.53234
16.2	2.551064
16.21667	2.569787
16.23333	2.588511
16.25	2.602553
16.26667	2.630638
16.28333	2.658723
16.3	2.682128
16.31667	2.700851
16.33333	2.714894
16.35	2.728936
16.36667	2.75234
16.38333	2.775745
16.4	2.794468
16.41667	2.813191
16.43333	2.831915
16.45	2.845957
16.46667	2.869362
16.48333	2.897447
16.5	2.91617
16.51667	2.934894
16.53333	2.953617
16.55	2.96766
16.56667	2.986383
16.58333	3.009787
16.6	3.028511
16.61667	3.047234
16.63333	3.061277
16.65	3.075319
16.66667	3.098723
16.68333	3.126808
16.7	3.145532
16.71667	3.159574
16.73333	3.178298
16.75	3.19234
16.76667	3.211064
16.78333	3.229787
16.8	3.248511
16.81667	3.267234
16.83333	3.281277
16.85	3.295319
16.86667	3.318723
16.88333	3.342128
16.9	3.360851
16.91667	3.379574
16.93333	3.393617
16.95	3.40766
16.96667	3.426383
16.98333	3.445106
17	3.46383
17.01667	3.477872
17.03333	3.491915
17.05	3.505957
17.06667	3.529362
17.08333	3.552766
17.1	3.571489
17.11667	3.585532
17.13333	3.599574
17.15	3.613617
17.16667	3.63234
17.18333	3.651064
17.2	3.665106
17.21667	3.679149
17.23333	3.693191
17.25	3.707234
17.26667	3.730638
17.28333	3.749362
17.3	3.768085
17.31667	3.782128
17.33333	3.79617
17.35	3.805532
17.36667	3.824255
17.38333	3.842979
17.4	3.857021
17.41667	3.871064
17.43333	3.885106
17.45	3.899149
17.46667	3.917872
17.48333	3.936596
17.5	3.955319
17.51667	3.969362
17.53333	3.983404
17.55	3.992766
17.56667	4.011489
17.58333	4.025532
17.6	4.039574
17.61667	4.053617
17.63333	4.06766
17.65	4.077021
17.66667	4.095745
17.68333	4.114468
17.7	4.128511
17.71667	4.142553
17.73333	4.156596
17.75	4.165957
17.76667	4.184681
17.78333	4.198723
17.8	4.212766
17.81667	4.222128
17.83333	4.23617
17.85	4.245532
17.86667	4.264255
17.88333	4.278298
17.9	4.29234
17.91667	4.306383
17.93333	4.315745
17.95	4.329787
17.96667	4.34383
17.98333	4.357872
18	4.367234
18.01667	4.381277
18.03333	4.390638
18.05	4.404681
18.06667	4.418723
18.08333	4.432766
18.1	4.446808
18.11667	4.45617
18.13333	4.470213
18.15	4.479574
18.16667	4.493617
18.18333	4.50766
18.2	4.517021
18.21667	4.526383
18.23333	4.540425
18.25	4.549787
18.26667	4.56383
18.28333	4.577872
18.3	4.591915
18.31667	4.601277
18.33333	4.610638
18.35	4.62
18.36667	4.634042
18.38333	4.643404
18.4	4.657447
18.41667	4.666808
18.43333	4.67617
18.45	4.685532
18.46667	4.699574
18.48333	4.713617
18.5	4.722979
18.51667	4.73234
18.53333	4.741702
18.55	4.751064
18.56667	4.765106
18.58333	4.774468
18.6	4.78383
18.61667	4.793191
18.63333	4.802553
18.65	4.811915
18.66667	4.825957
18.68333	4.835319
18.7	4.844681
18.71667	4.854042
18.73333	4.863404
18.75	4.872766
18.76667	4.882128
18.78333	4.891489
18.8	4.900851
18.81667	4.910213
18.83333	4.919574
18.85	4.928936
18.86667	4.938298
18.88333	4.95234
18.9	4.961702
18.91667	4.971064
18.93333	4.975745
18.95	4.985106
18.96667	4.994468
18.98333	5.00383
19	5.013191
19.01667	5.022553
19.03333	5.031915
19.05	5.036596
19.06667	5.045957
19.08333	5.06
19.1	5.069362
19.11667	5.074042
19.13333	5.083404
19.15	5.088085
19.16667	5.097447
19.18333	5.106808
19.2	5.11617
19.21667	5.125532
19.23333	5.130213
19.25	5.139574
19.26667	5.148936
19.28333	5.158298
19.3	5.162979
19.31667	5.17234
19.33333	5.177021
19.35	5.186383
19.36667	5.195745
19.38333	5.200425
19.4	5.209787
19.41667	5.214468
19.43333	5.22383
19.45	5.233191
19.46667	5.237872
19.48333	5.247234
19.5	5.256596
19.51667	5.261277
19.53333	5.270638
19.55	5.275319
19.56667	5.284681
19.58333	5.289362
19.6	5.298723
19.61667	5.303404
19.63333	5.312766
19.65	5.317447
19.66667	5.326808
19.68333	5.331489
19.7	5.340851
19.71667	5.345532
19.73333	5.354894
19.75	5.359574
19.76667	5.364255
19.78333	5.373617
19.8	5.378298
19.81667	5.382979
19.83333	5.39234
19.85	5.397021
19.86667	5.401702
19.88333	5.411064
19.9	5.415745
19.91667	5.425106
19.93333	5.429787
19.95	5.434468
19.96667	5.44383
19.98333	5.448511
20	5.453191
