"Sample Set Id"	1752
"Sample Set Name"	"sad100124HPA"
"System Name"	"System III"
"Instrument Method Name"	"System 3_RI"
"SampleName"	"PMMA5.98kDa"
"Injection"	1
"Vial"	"3"
"Channel"	"410 "
0.01666667	3.571489
0.03333333	1.37617
0.05	0.5289362
0.06666667	0.2012766
0.08333333	0.07957447
0.1	0.02808511
0.1166667	0.009361702
0.1333333	0.004680851
0.15	0
0.1666667	0
0.1833333	0
0.2	0
0.2166667	0.004680851
0.2333333	0.004680851
0.25	0.009361702
0.2666667	0.01404255
0.2833333	0.01404255
0.3	0.0187234
0.3166667	0.02340426
0.3333333	0.02340426
0.35	0.02808511
0.3666667	0.03276596
0.3833333	0.03744681
0.4	0.03744681
0.4166667	0.04212766
0.4333333	0.04680851
0.45	0.05148936
0.4666667	0.05148936
0.4833333	0.05617021
0.5	0.06085106
0.5166667	0.06085106
0.5333333	0.06553191
0.55	0.07021277
0.5666667	0.07489362
0.5833333	0.07489362
0.6	0.07957447
0.6166667	0.07957447
0.6333333	0.08425532
0.65	0.08893617
0.6666667	0.08893617
0.6833333	0.09361702
0.7	0.09829787
0.7166667	0.09829787
0.7333333	0.1029787
0.75	0.1029787
0.7666667	0.1076596
0.7833333	0.1123404
0.8	0.1123404
0.8166667	0.1123404
0.8333333	0.1170213
0.85	0.1170213
0.8666667	0.1217021
0.8833333	0.126383
0.9	0.126383
0.9166667	0.1310638
0.9333333	0.1310638
0.95	0.1310638
0.9666667	0.1357447
0.9833333	0.1404255
1	0.1404255
1.016667	0.1404255
1.033333	0.1451064
1.05	0.1451064
1.066667	0.1497872
1.083333	0.1497872
1.1	0.1544681
1.116667	0.1544681
1.133333	0.1544681
1.15	0.1591489
1.166667	0.1591489
1.183333	0.1638298
1.2	0.1638298
1.216667	0.1638298
1.233333	0.1685106
1.25	0.1685106
1.266667	0.1731915
1.283333	0.1731915
1.3	0.1778723
1.316667	0.1778723
1.333333	0.1778723
1.35	0.1825532
1.366667	0.1825532
1.383333	0.187234
1.4	0.187234
1.416667	0.187234
1.433333	0.187234
1.45	0.1919149
1.466667	0.1919149
1.483333	0.1919149
1.5	0.1965957
1.516667	0.1965957
1.533333	0.1965957
1.55	0.2012766
1.566667	0.2012766
1.583333	0.2059574
1.6	0.2059574
1.616667	0.2059574
1.633333	0.2059574
1.65	0.2106383
1.666667	0.2106383
1.683333	0.2106383
1.7	0.2153191
1.716667	0.2153191
1.733333	0.2153191
1.75	0.22
1.766667	0.22
1.783333	0.22
1.8	0.22
1.816667	0.2246808
1.833333	0.2246808
1.85	0.2246808
1.866667	0.2246808
1.883333	0.2293617
1.9	0.2293617
1.916667	0.2293617
1.933333	0.2340426
1.95	0.2340426
1.966667	0.2340426
1.983333	0.2387234
2	0.2387234
2.016667	0.2387234
2.033333	0.2387234
2.05	0.2387234
2.066667	0.2434043
2.083333	0.2434043
2.1	0.2434043
2.116667	0.2434043
2.133333	0.2480851
2.15	0.2480851
2.166667	0.2480851
2.183333	0.252766
2.2	0.252766
2.216667	0.252766
2.233333	0.252766
2.25	0.252766
2.266667	0.2574468
2.283333	0.2574468
2.3	0.2574468
2.316667	0.2574468
2.333333	0.2574468
2.35	0.2621277
2.366667	0.2621277
2.383333	0.2621277
2.4	0.2621277
2.416667	0.2621277
2.433333	0.2668085
2.45	0.2668085
2.466667	0.2668085
2.483333	0.2668085
2.5	0.2668085
2.516667	0.2668085
2.533333	0.2714894
2.55	0.2714894
2.566667	0.2714894
2.583333	0.2714894
2.6	0.2714894
2.616667	0.2714894
2.633333	0.2761702
2.65	0.2761702
2.666667	0.2761702
2.683333	0.2761702
2.7	0.2808511
2.716667	0.2808511
2.733333	0.2808511
2.75	0.2808511
2.766667	0.2808511
2.783333	0.2808511
2.8	0.2808511
2.816667	0.2808511
2.833333	0.2855319
2.85	0.2855319
2.866667	0.2855319
2.883333	0.2855319
2.9	0.2855319
2.916667	0.2855319
2.933333	0.2855319
2.95	0.2902128
2.966667	0.2902128
2.983333	0.2902128
3	0.2902128
3.016667	0.2902128
3.033333	0.2902128
3.05	0.2902128
3.066667	0.2948936
3.083333	0.2948936
3.1	0.2948936
3.116667	0.2948936
3.133333	0.2948936
3.15	0.2948936
3.166667	0.2995745
3.183333	0.2995745
3.2	0.2995745
3.216667	0.2995745
3.233333	0.2995745
3.25	0.2995745
3.266667	0.2995745
3.283333	0.3042553
3.3	0.3042553
3.316667	0.3042553
3.333333	0.3042553
3.35	0.3042553
3.366667	0.3042553
3.383333	0.3089362
3.4	0.3042553
3.416667	0.3042553
3.433333	0.3089362
3.45	0.3089362
3.466667	0.3089362
3.483333	0.3089362
3.5	0.3089362
3.516667	0.3089362
3.533333	0.3089362
3.55	0.313617
3.566667	0.313617
3.583333	0.313617
3.6	0.313617
3.616667	0.313617
3.633333	0.313617
3.65	0.313617
3.666667	0.313617
3.683333	0.313617
3.7	0.313617
3.716667	0.313617
3.733333	0.3182979
3.75	0.3182979
3.766667	0.3182979
3.783333	0.3182979
3.8	0.3182979
3.816667	0.3182979
3.833333	0.3182979
3.85	0.3182979
3.866667	0.3182979
3.883333	0.3229787
3.9	0.3229787
3.916667	0.3229787
3.933333	0.3229787
3.95	0.3229787
3.966667	0.3229787
3.983333	0.3229787
4	0.3229787
4.016667	0.3229787
4.033333	0.3229787
4.05	0.3229787
4.066667	0.3229787
4.083333	0.3276596
4.1	0.3229787
4.116667	0.3276596
4.133333	0.3276596
4.15	0.3276596
4.166667	0.3276596
4.183333	0.3276596
4.2	0.3276596
4.216667	0.3276596
4.233333	0.3276596
4.25	0.3276596
4.266667	0.3276596
4.283333	0.3276596
4.3	0.3276596
4.316667	0.3276596
4.333333	0.3276596
4.35	0.3276596
4.366667	0.3323404
4.383333	0.3323404
4.4	0.3323404
4.416667	0.3323404
4.433333	0.3323404
4.45	0.3323404
4.466667	0.3323404
4.483333	0.3323404
4.5	0.3323404
4.516667	0.3323404
4.533333	0.3323404
4.55	0.3323404
4.566667	0.3323404
4.583333	0.3323404
4.6	0.3323404
4.616667	0.3323404
4.633333	0.3323404
4.65	0.3323404
4.666667	0.3323404
4.683333	0.3323404
4.7	0.3323404
4.716667	0.3323404
4.733333	0.3323404
4.75	0.3323404
4.766667	0.3323404
4.783333	0.3323404
4.8	0.3323404
4.816667	0.3323404
4.833333	0.3323404
4.85	0.3323404
4.866667	0.3323404
4.883333	0.3323404
4.9	0.3323404
4.916667	0.3323404
4.933333	0.3323404
4.95	0.3323404
4.966667	0.3323404
4.983333	0.3323404
5	0.3323404
5.016667	0.3323404
5.033333	0.3323404
5.05	0.3323404
5.066667	0.3323404
5.083333	0.3370213
5.1	0.3323404
5.116667	0.3323404
5.133333	0.3370213
5.15	0.3323404
5.166667	0.3370213
5.183333	0.3370213
5.2	0.3370213
5.216667	0.3323404
5.233333	0.3323404
5.25	0.3323404
5.266667	0.3370213
5.283333	0.3370213
5.3	0.3370213
5.316667	0.3370213
5.333333	0.3370213
5.35	0.3370213
5.366667	0.3370213
5.383333	0.3370213
5.4	0.3370213
5.416667	0.3370213
5.433333	0.3370213
5.45	0.3370213
5.466667	0.3370213
5.483333	0.3370213
5.5	0.3370213
5.516667	0.3370213
5.533333	0.3370213
5.55	0.3370213
5.566667	0.3370213
5.583333	0.3370213
5.6	0.3370213
5.616667	0.3370213
5.633333	0.3370213
5.65	0.3370213
5.666667	0.3370213
5.683333	0.3370213
5.7	0.3370213
5.716667	0.3370213
5.733333	0.3370213
5.75	0.3370213
5.766667	0.3370213
5.783333	0.3370213
5.8	0.3370213
5.816667	0.3370213
5.833333	0.3370213
5.85	0.3370213
5.866667	0.3370213
5.883333	0.3417021
5.9	0.3370213
5.916667	0.3370213
5.933333	0.3370213
5.95	0.3370213
5.966667	0.3370213
5.983333	0.3417021
6	0.3370213
6.016667	0.3370213
6.033333	0.3370213
6.05	0.3370213
6.066667	0.3370213
6.083333	0.3370213
6.1	0.3370213
6.116667	0.3370213
6.133333	0.3370213
6.15	0.3370213
6.166667	0.3370213
6.183333	0.3370213
6.2	0.3370213
6.216667	0.3370213
6.233333	0.3370213
6.25	0.3370213
6.266667	0.3370213
6.283333	0.3370213
6.3	0.3370213
6.316667	0.3370213
6.333333	0.3370213
6.35	0.3370213
6.366667	0.3370213
6.383333	0.3370213
6.4	0.3370213
6.416667	0.3370213
6.433333	0.3370213
6.45	0.3370213
6.466667	0.3370213
6.483333	0.3370213
6.5	0.3370213
6.516667	0.3370213
6.533333	0.3370213
6.55	0.3370213
6.566667	0.3370213
6.583333	0.3370213
6.6	0.3323404
6.616667	0.3323404
6.633333	0.3323404
6.65	0.3323404
6.666667	0.3323404
6.683333	0.3323404
6.7	0.3323404
6.716667	0.3323404
6.733333	0.3323404
6.75	0.3323404
6.766667	0.3323404
6.783333	0.3370213
6.8	0.3323404
6.816667	0.3323404
6.833333	0.3323404
6.85	0.3323404
6.866667	0.3323404
6.883333	0.3370213
6.9	0.3323404
6.916667	0.3323404
6.933333	0.3323404
6.95	0.3323404
6.966667	0.3323404
6.983333	0.3370213
7	0.3323404
7.016667	0.3323404
7.033333	0.3323404
7.05	0.3323404
7.066667	0.3323404
7.083333	0.3323404
7.1	0.3323404
7.116667	0.3323404
7.133333	0.3323404
7.15	0.3323404
7.166667	0.3323404
7.183333	0.3323404
7.2	0.3323404
7.216667	0.3323404
7.233333	0.3323404
7.25	0.3323404
7.266667	0.3323404
7.283333	0.3323404
7.3	0.3323404
7.316667	0.3323404
7.333333	0.3323404
7.35	0.3323404
7.366667	0.3323404
7.383333	0.3323404
7.4	0.3323404
7.416667	0.3323404
7.433333	0.3323404
7.45	0.3323404
7.466667	0.3323404
7.483333	0.3323404
7.5	0.3323404
7.516667	0.3323404
7.533333	0.3276596
7.55	0.3276596
7.566667	0.3276596
7.583333	0.3323404
7.6	0.3276596
7.616667	0.3276596
7.633333	0.3276596
7.65	0.3276596
7.666667	0.3276596
7.683333	0.3276596
7.7	0.3276596
7.716667	0.3276596
7.733333	0.3276596
7.75	0.3276596
7.766667	0.3276596
7.783333	0.3276596
7.8	0.3229787
7.816667	0.3229787
7.833333	0.3229787
7.85	0.3229787
7.866667	0.3229787
7.883333	0.3229787
7.9	0.3229787
7.916667	0.3229787
7.933333	0.3229787
7.95	0.3229787
7.966667	0.3229787
7.983333	0.3229787
8	0.3229787
8.016667	0.3229787
8.033333	0.3229787
8.05	0.3229787
8.066667	0.3276596
8.083333	0.3323404
8.1	0.3370213
8.116667	0.3510638
8.133333	0.3651064
8.15	0.3885106
8.166667	0.4259574
8.183333	0.472766
8.2	0.533617
8.216667	0.6178723
8.233333	0.7255319
8.25	0.8659574
8.266667	1.034468
8.283333	1.240426
8.3	1.488511
8.316667	1.774043
8.333333	2.106383
8.35	2.47617
8.366667	2.888085
8.383333	3.332766
8.4	3.791489
8.416667	4.273617
8.433333	4.760425
8.45	5.247234
8.466667	5.715319
8.483333	6.16
8.5	6.567234
8.516667	6.927659
8.533333	7.241277
8.55	7.498723
8.566667	7.7
8.583333	7.840425
8.6	7.92
8.616667	7.943404
8.633333	7.92
8.65	7.845106
8.666667	7.732766
8.683333	7.582979
8.7	7.400425
8.716667	7.199149
8.733333	6.979149
8.75	6.745106
8.766667	6.497021
8.783333	6.248936
8.8	6.000851
8.816667	5.748085
8.833333	5.504681
8.85	5.261277
8.866667	5.027234
8.883333	4.802553
8.9	4.582553
8.916667	4.371915
8.933333	4.165957
8.95	3.974043
8.966667	3.791489
8.983333	3.613617
9	3.445106
9.016667	3.281277
9.033333	3.126808
9.05	2.97234
9.066667	2.831915
9.083333	2.691489
9.1	2.560426
9.116667	2.434043
9.133333	2.31234
9.15	2.195319
9.166667	2.082979
9.183333	1.98
9.2	1.881702
9.216667	1.788085
9.233333	1.699149
9.25	1.619574
9.266667	1.544681
9.283333	1.474468
9.3	1.408936
9.316667	1.352766
9.333333	1.296596
9.35	1.249787
9.366667	1.20766
9.383333	1.170213
9.4	1.137447
9.416667	1.104681
9.433333	1.076596
9.45	1.057872
9.466667	1.034468
9.483333	1.015745
9.5	1.001702
9.516667	0.9876596
9.533333	0.9782979
9.55	0.9689362
9.566667	0.9595745
9.583333	0.9502128
9.6	0.9408511
9.616667	0.9268085
9.633333	0.9080851
9.65	0.8846808
9.666667	0.847234
9.683333	0.786383
9.7	0.7068085
9.716667	0.5944681
9.733333	0.4540425
9.75	0.2714894
9.766667	0.05617021
9.783333	-0.187234
9.8	-0.4587234
9.816667	-0.7442553
9.833333	-1.034468
9.85	-1.329362
9.866667	-1.610213
9.883333	-1.886383
9.9	-2.148511
9.916667	-2.410638
9.933333	-2.686808
9.95	-2.986383
9.966667	-3.337447
9.983333	-3.754043
10	-4.240851
10.01667	-4.797872
10.03333	-5.401702
10.05	-6.014894
10.06667	-6.6
10.08333	-7.100851
10.1	-7.484681
10.11667	-7.723404
10.13333	-7.807659
10.15	-7.742128
10.16667	-7.554894
10.18333	-7.26
10.2	-6.890213
10.21667	-6.478298
10.23333	-6.042979
10.25	-5.598298
10.26667	-5.162979
10.28333	-4.741702
10.3	-4.34383
10.31667	-3.978723
10.33333	-3.641702
10.35	-3.332766
10.36667	-3.051915
10.38333	-2.80383
10.4	-2.579149
10.41667	-2.377872
10.43333	-2.2
10.45	-2.040851
10.46667	-1.895745
10.48333	-1.764681
10.5	-1.64766
10.51667	-1.54
10.53333	-1.437021
10.55	-1.338723
10.56667	-1.249787
10.58333	-1.160851
10.6	-1.076596
10.61667	-0.9923404
10.63333	-0.9080851
10.65	-0.8238298
10.66667	-0.7442553
10.68333	-0.66
10.7	-0.5757447
10.71667	-0.4961702
10.73333	-0.4165957
10.75	-0.3370213
10.76667	-0.2621277
10.78333	-0.187234
10.8	-0.1217021
10.81667	-0.06085106
10.83333	-0.004680851
10.85	0.04212766
10.86667	0.08425532
10.88333	0.1170213
10.9	0.1404255
10.91667	0.1591489
10.93333	0.1731915
10.95	0.1825532
10.96667	0.187234
10.98333	0.1825532
11	0.1778723
11.01667	0.1685106
11.03333	0.1591489
11.05	0.1497872
11.06667	0.1404255
11.08333	0.126383
11.1	0.1170213
11.11667	0.1029787
11.13333	0.08893617
11.15	0.07957447
11.16667	0.06553191
11.18333	0.05617021
11.2	0.04212766
11.21667	0.03276596
11.23333	0.02340426
11.25	0.01404255
11.26667	0.004680851
11.28333	0
11.3	-0.004680851
11.31667	-0.004680851
11.33333	-0.009361702
11.35	-0.009361702
11.36667	-0.004680851
11.38333	-0.004680851
11.4	-0.004680851
11.41667	0
11.43333	0
11.45	0.004680851
11.46667	0.009361702
11.48333	0.01404255
11.5	0.0187234
11.51667	0.02340426
11.53333	0.02808511
11.55	0.02808511
11.56667	0.03276596
11.58333	0.03276596
11.6	0.02808511
11.61667	0.02340426
11.63333	0.01404255
11.65	0.004680851
11.66667	-0.009361702
11.68333	-0.03276596
11.7	-0.06085106
11.71667	-0.09361702
11.73333	-0.1404255
11.75	-0.1919149
11.76667	-0.2480851
11.78333	-0.3089362
11.8	-0.3791489
11.81667	-0.4493617
11.83333	-0.5195745
11.85	-0.5851064
11.86667	-0.6459574
11.88333	-0.7021277
11.9	-0.7489362
11.91667	-0.7817021
11.93333	-0.8097872
11.95	-0.8238298
11.96667	-0.8285106
11.98333	-0.8285106
12	-0.8238298
12.01667	-0.8097872
12.03333	-0.7910638
12.05	-0.7723404
12.06667	-0.7489362
12.08333	-0.7208511
12.1	-0.6974468
12.11667	-0.6740425
12.13333	-0.6553191
12.15	-0.6365957
12.16667	-0.6178723
12.18333	-0.6038298
12.2	-0.5944681
12.21667	-0.5851064
12.23333	-0.5804255
12.25	-0.5804255
12.26667	-0.5851064
12.28333	-0.5897872
12.3	-0.5944681
12.31667	-0.6038298
12.33333	-0.6085106
12.35	-0.6178723
12.36667	-0.6225532
12.38333	-0.6225532
12.4	-0.6225532
12.41667	-0.6225532
12.43333	-0.6131915
12.45	-0.5991489
12.46667	-0.5851064
12.48333	-0.566383
12.5	-0.5429787
12.51667	-0.5195745
12.53333	-0.4914894
12.55	-0.4634042
12.56667	-0.4306383
12.58333	-0.4025532
12.6	-0.3697872
12.61667	-0.3370213
12.63333	-0.3089362
12.65	-0.2761702
12.66667	-0.2480851
12.68333	-0.22
12.7	-0.1919149
12.71667	-0.1638298
12.73333	-0.1404255
12.75	-0.1170213
12.76667	-0.08893617
12.78333	-0.06553191
12.8	-0.04680851
12.81667	-0.03276596
12.83333	-0.01404255
12.85	0.004680851
12.86667	0.0187234
12.88333	0.03744681
12.9	0.05148936
12.91667	0.06085106
12.93333	0.07489362
12.95	0.08425532
12.96667	0.09361702
12.98333	0.1076596
13	0.1123404
13.01667	0.1217021
13.03333	0.1310638
13.05	0.1357447
13.06667	0.1451064
13.08333	0.1497872
13.1	0.1544681
13.11667	0.1638298
13.13333	0.1685106
13.15	0.1731915
13.16667	0.1778723
13.18333	0.1825532
13.2	0.187234
13.21667	0.1919149
13.23333	0.1965957
13.25	0.2012766
13.26667	0.2059574
13.28333	0.2059574
13.3	0.2106383
13.31667	0.2153191
13.33333	0.22
13.35	0.22
13.36667	0.2246808
13.38333	0.2293617
13.4	0.2293617
13.41667	0.2340426
13.43333	0.2340426
13.45	0.2340426
13.46667	0.2387234
13.48333	0.2387234
13.5	0.2434043
13.51667	0.2434043
13.53333	0.2480851
13.55	0.2480851
13.56667	0.2480851
13.58333	0.252766
13.6	0.252766
13.61667	0.252766
13.63333	0.2574468
13.65	0.2574468
13.66667	0.2574468
13.68333	0.2574468
13.7	0.2621277
13.71667	0.2621277
13.73333	0.2621277
13.75	0.2621277
13.76667	0.2621277
13.78333	0.2668085
13.8	0.2621277
13.81667	0.2621277
13.83333	0.2621277
13.85	0.2621277
13.86667	0.2668085
13.88333	0.2668085
13.9	0.2668085
13.91667	0.2668085
13.93333	0.2668085
13.95	0.2668085
13.96667	0.2668085
13.98333	0.2668085
14	0.2668085
14.01667	0.2621277
14.03333	0.2621277
14.05	0.2621277
14.06667	0.2621277
14.08333	0.2621277
14.1	0.2621277
14.11667	0.2621277
14.13333	0.2621277
14.15	0.2621277
14.16667	0.2621277
14.18333	0.2621277
14.2	0.2621277
14.21667	0.2621277
14.23333	0.2621277
14.25	0.2621277
14.26667	0.2621277
14.28333	0.2621277
14.3	0.2621277
14.31667	0.2621277
14.33333	0.2621277
14.35	0.2621277
14.36667	0.2621277
14.38333	0.2621277
14.4	0.2621277
14.41667	0.2621277
14.43333	0.2621277
14.45	0.2621277
14.46667	0.2621277
14.48333	0.2621277
14.5	0.2621277
14.51667	0.2621277
14.53333	0.2668085
14.55	0.2668085
14.56667	0.2668085
14.58333	0.2668085
14.6	0.2668085
14.61667	0.2668085
14.63333	0.2668085
14.65	0.2668085
14.66667	0.2668085
14.68333	0.2714894
14.7	0.2714894
14.71667	0.2714894
14.73333	0.2714894
14.75	0.2714894
14.76667	0.2714894
14.78333	0.2761702
14.8	0.2761702
14.81667	0.2761702
14.83333	0.2761702
14.85	0.2761702
14.86667	0.2761702
14.88333	0.2808511
14.9	0.2808511
14.91667	0.2808511
14.93333	0.2808511
14.95	0.2808511
14.96667	0.2855319
14.98333	0.2855319
15	0.2855319
15.01667	0.2855319
15.03333	0.2855319
15.05	0.2855319
15.06667	0.2855319
15.08333	0.2902128
15.1	0.2902128
15.11667	0.2902128
15.13333	0.2902128
15.15	0.2902128
15.16667	0.2948936
15.18333	0.2948936
15.2	0.2948936
15.21667	0.2948936
15.23333	0.2948936
15.25	0.2948936
15.26667	0.2948936
15.28333	0.2995745
15.3	0.2995745
15.31667	0.2995745
15.33333	0.2995745
15.35	0.2995745
15.36667	0.2995745
15.38333	0.3042553
15.4	0.3042553
15.41667	0.3042553
15.43333	0.3042553
15.45	0.3042553
15.46667	0.3042553
15.48333	0.3042553
15.5	0.3042553
15.51667	0.3042553
15.53333	0.3089362
15.55	0.3089362
15.56667	0.3089362
15.58333	0.3089362
15.6	0.3089362
15.61667	0.3089362
15.63333	0.3089362
15.65	0.3089362
15.66667	0.3089362
15.68333	0.313617
15.7	0.313617
15.71667	0.313617
15.73333	0.313617
15.75	0.313617
15.76667	0.313617
15.78333	0.3182979
15.8	0.313617
15.81667	0.313617
15.83333	0.313617
15.85	0.3182979
15.86667	0.3182979
15.88333	0.3182979
15.9	0.3182979
15.91667	0.3182979
15.93333	0.3182979
15.95	0.3182979
15.96667	0.3182979
15.98333	0.3182979
16	0.3182979
16.01667	0.3182979
16.03333	0.3182979
16.05	0.3182979
16.06667	0.3182979
16.08333	0.3229787
16.1	0.3229787
16.11667	0.3229787
16.13333	0.3229787
16.15	0.3229787
16.16667	0.3229787
16.18333	0.3229787
16.2	0.3229787
16.21667	0.3229787
16.23333	0.3229787
16.25	0.3229787
16.26667	0.3229787
16.28333	0.3229787
16.3	0.3229787
16.31667	0.3229787
16.33333	0.3229787
16.35	0.3229787
16.36667	0.3229787
16.38333	0.3229787
16.4	0.3229787
16.41667	0.3229787
16.43333	0.3229787
16.45	0.3229787
16.46667	0.3229787
16.48333	0.3229787
16.5	0.3229787
16.51667	0.3229787
16.53333	0.3276596
16.55	0.3276596
16.56667	0.3276596
16.58333	0.3276596
16.6	0.3276596
16.61667	0.3276596
16.63333	0.3229787
16.65	0.3276596
16.66667	0.3276596
16.68333	0.3276596
16.7	0.3276596
16.71667	0.3276596
16.73333	0.3276596
16.75	0.3276596
16.76667	0.3276596
16.78333	0.3276596
16.8	0.3276596
16.81667	0.3276596
16.83333	0.3276596
16.85	0.3276596
16.86667	0.3276596
16.88333	0.3276596
16.9	0.3276596
16.91667	0.3276596
16.93333	0.3276596
16.95	0.3276596
16.96667	0.3276596
16.98333	0.3276596
17	0.3276596
17.01667	0.3276596
17.03333	0.3276596
17.05	0.3276596
17.06667	0.3276596
17.08333	0.3276596
17.1	0.3276596
17.11667	0.3276596
17.13333	0.3276596
17.15	0.3276596
17.16667	0.3276596
17.18333	0.3276596
17.2	0.3276596
17.21667	0.3276596
17.23333	0.3276596
17.25	0.3276596
17.26667	0.3276596
17.28333	0.3276596
17.3	0.3276596
17.31667	0.3276596
17.33333	0.3276596
17.35	0.3276596
17.36667	0.3323404
17.38333	0.3323404
17.4	0.3323404
17.41667	0.3323404
17.43333	0.3323404
17.45	0.3323404
17.46667	0.3323404
17.48333	0.3323404
17.5	0.3323404
17.51667	0.3323404
17.53333	0.3323404
17.55	0.3323404
17.56667	0.3323404
17.58333	0.3323404
17.6	0.3323404
17.61667	0.3323404
17.63333	0.3323404
17.65	0.3323404
17.66667	0.3323404
17.68333	0.3323404
17.7	0.3323404
17.71667	0.3323404
17.73333	0.3323404
17.75	0.3323404
17.76667	0.3323404
17.78333	0.3323404
17.8	0.3323404
17.81667	0.3323404
17.83333	0.3323404
17.85	0.3323404
17.86667	0.3323404
17.88333	0.3323404
17.9	0.3323404
17.91667	0.3323404
17.93333	0.3323404
17.95	0.3323404
17.96667	0.3323404
17.98333	0.3323404
18	0.3323404
18.01667	0.3323404
18.03333	0.3323404
18.05	0.3323404
18.06667	0.3323404
18.08333	0.3323404
18.1	0.3323404
18.11667	0.3323404
18.13333	0.3323404
18.15	0.3323404
18.16667	0.3323404
18.18333	0.3323404
18.2	0.3323404
18.21667	0.3323404
18.23333	0.3323404
18.25	0.3323404
18.26667	0.3323404
18.28333	0.3323404
18.3	0.3323404
18.31667	0.3323404
18.33333	0.3323404
18.35	0.3323404
18.36667	0.3323404
18.38333	0.3323404
18.4	0.3323404
18.41667	0.3323404
18.43333	0.3323404
18.45	0.3323404
18.46667	0.3323404
18.48333	0.3323404
18.5	0.3323404
18.51667	0.3323404
18.53333	0.3323404
18.55	0.3323404
18.56667	0.3323404
18.58333	0.3323404
18.6	0.3323404
18.61667	0.3323404
18.63333	0.3323404
18.65	0.3323404
18.66667	0.3323404
18.68333	0.3323404
18.7	0.3323404
18.71667	0.3323404
18.73333	0.3323404
18.75	0.3323404
18.76667	0.3323404
18.78333	0.3323404
18.8	0.3323404
18.81667	0.3323404
18.83333	0.3323404
18.85	0.3323404
18.86667	0.3323404
18.88333	0.3323404
18.9	0.3323404
18.91667	0.3323404
18.93333	0.3323404
18.95	0.3323404
18.96667	0.3323404
18.98333	0.3323404
19	0.3323404
19.01667	0.3323404
19.03333	0.3323404
19.05	0.3323404
19.06667	0.3323404
19.08333	0.3323404
19.1	0.3323404
19.11667	0.3323404
19.13333	0.3323404
19.15	0.3323404
19.16667	0.3323404
19.18333	0.3323404
19.2	0.3323404
19.21667	0.3323404
19.23333	0.3323404
19.25	0.3323404
19.26667	0.3323404
19.28333	0.3323404
19.3	0.3323404
19.31667	0.3323404
19.33333	0.3323404
19.35	0.3323404
19.36667	0.3323404
19.38333	0.3323404
19.4	0.3323404
19.41667	0.3323404
19.43333	0.3323404
19.45	0.3323404
19.46667	0.3323404
19.48333	0.3323404
19.5	0.3323404
19.51667	0.3323404
19.53333	0.3323404
19.55	0.3323404
19.56667	0.3323404
19.58333	0.3323404
19.6	0.3323404
19.61667	0.3276596
19.63333	0.3276596
19.65	0.3276596
19.66667	0.3276596
19.68333	0.3276596
19.7	0.3323404
19.71667	0.3323404
19.73333	0.3276596
19.75	0.3276596
19.76667	0.3276596
19.78333	0.3323404
19.8	0.3276596
19.81667	0.3276596
19.83333	0.3276596
19.85	0.3276596
19.86667	0.3276596
19.88333	0.3276596
19.9	0.3276596
19.91667	0.3276596
19.93333	0.3276596
19.95	0.3276596
19.96667	0.3276596
19.98333	0.3276596
20	0.3276596
