"Sample Set Id"	1752
"Sample Set Name"	"sad100124HPA"
"System Name"	"System III"
"Instrument Method Name"	"System 3_RI"
"SampleName"	"PMMAfourplus"
"Injection"	1
"Vial"	"22"
"Channel"	"410 "
0.01666667	-0.004680851
0.03333333	0
0.05	0
0.06666667	0
0.08333333	0
0.1	0
0.1166667	0
0.1333333	0
0.15	0
0.1666667	0
0.1833333	0
0.2	0
0.2166667	0
0.2333333	0
0.25	0
0.2666667	0.004680851
0.2833333	0.004680851
0.3	0.004680851
0.3166667	0.004680851
0.3333333	0.004680851
0.35	0.004680851
0.3666667	0.004680851
0.3833333	0.004680851
0.4	0.009361702
0.4166667	0.009361702
0.4333333	0.009361702
0.45	0.009361702
0.4666667	0.009361702
0.4833333	0.01404255
0.5	0.01404255
0.5166667	0.01404255
0.5333333	0.01404255
0.55	0.01404255
0.5666667	0.01404255
0.5833333	0.01404255
0.6	0.01404255
0.6166667	0.01404255
0.6333333	0.01404255
0.65	0.0187234
0.6666667	0.0187234
0.6833333	0.0187234
0.7	0.0187234
0.7166667	0.0187234
0.7333333	0.0187234
0.75	0.0187234
0.7666667	0.0187234
0.7833333	0.0187234
0.8	0.0187234
0.8166667	0.0187234
0.8333333	0.0187234
0.85	0.0187234
0.8666667	0.0187234
0.8833333	0.0187234
0.9	0.02340426
0.9166667	0.02340426
0.9333333	0.0187234
0.95	0.0187234
0.9666667	0.02340426
0.9833333	0.02340426
1	0.02340426
1.016667	0.02340426
1.033333	0.02340426
1.05	0.02340426
1.066667	0.02340426
1.083333	0.02340426
1.1	0.02340426
1.116667	0.02340426
1.133333	0.02340426
1.15	0.02340426
1.166667	0.02340426
1.183333	0.02340426
1.2	0.02340426
1.216667	0.02340426
1.233333	0.02340426
1.25	0.02340426
1.266667	0.02340426
1.283333	0.02340426
1.3	0.02340426
1.316667	0.02340426
1.333333	0.02340426
1.35	0.02340426
1.366667	0.02340426
1.383333	0.02340426
1.4	0.02340426
1.416667	0.02340426
1.433333	0.02340426
1.45	0.02340426
1.466667	0.02340426
1.483333	0.02340426
1.5	0.02340426
1.516667	0.02340426
1.533333	0.02340426
1.55	0.02340426
1.566667	0.02340426
1.583333	0.02340426
1.6	0.02340426
1.616667	0.02340426
1.633333	0.02340426
1.65	0.02340426
1.666667	0.02340426
1.683333	0.02340426
1.7	0.02340426
1.716667	0.02340426
1.733333	0.02340426
1.75	0.02340426
1.766667	0.02340426
1.783333	0.02340426
1.8	0.02340426
1.816667	0.02340426
1.833333	0.02340426
1.85	0.02340426
1.866667	0.02340426
1.883333	0.02340426
1.9	0.02340426
1.916667	0.02340426
1.933333	0.02340426
1.95	0.02340426
1.966667	0.02340426
1.983333	0.02340426
2	0.02340426
2.016667	0.02340426
2.033333	0.02340426
2.05	0.02340426
2.066667	0.02340426
2.083333	0.02340426
2.1	0.02340426
2.116667	0.02340426
2.133333	0.02340426
2.15	0.02340426
2.166667	0.02340426
2.183333	0.02340426
2.2	0.02340426
2.216667	0.02340426
2.233333	0.02340426
2.25	0.02340426
2.266667	0.02340426
2.283333	0.02808511
2.3	0.02808511
2.316667	0.02808511
2.333333	0.02340426
2.35	0.02340426
2.366667	0.02340426
2.383333	0.02340426
2.4	0.02808511
2.416667	0.02808511
2.433333	0.02340426
2.45	0.02340426
2.466667	0.02808511
2.483333	0.02808511
2.5	0.02808511
2.516667	0.02808511
2.533333	0.02808511
2.55	0.02808511
2.566667	0.02808511
2.583333	0.02808511
2.6	0.02808511
2.616667	0.02808511
2.633333	0.02808511
2.65	0.02808511
2.666667	0.02808511
2.683333	0.02808511
2.7	0.02808511
2.716667	0.02808511
2.733333	0.02808511
2.75	0.02808511
2.766667	0.02808511
2.783333	0.02808511
2.8	0.02808511
2.816667	0.02808511
2.833333	0.02808511
2.85	0.02808511
2.866667	0.02808511
2.883333	0.02808511
2.9	0.02808511
2.916667	0.02808511
2.933333	0.02808511
2.95	0.02808511
2.966667	0.02808511
2.983333	0.02808511
3	0.02808511
3.016667	0.02808511
3.033333	0.02808511
3.05	0.02808511
3.066667	0.02808511
3.083333	0.02808511
3.1	0.02808511
3.116667	0.02808511
3.133333	0.02808511
3.15	0.02808511
3.166667	0.02808511
3.183333	0.02808511
3.2	0.02808511
3.216667	0.02808511
3.233333	0.02808511
3.25	0.02808511
3.266667	0.02808511
3.283333	0.02808511
3.3	0.02808511
3.316667	0.02808511
3.333333	0.02808511
3.35	0.02808511
3.366667	0.02808511
3.383333	0.02808511
3.4	0.02808511
3.416667	0.02808511
3.433333	0.02808511
3.45	0.02808511
3.466667	0.02808511
3.483333	0.02808511
3.5	0.02808511
3.516667	0.02808511
3.533333	0.02808511
3.55	0.02808511
3.566667	0.02808511
3.583333	0.02808511
3.6	0.02808511
3.616667	0.02808511
3.633333	0.02808511
3.65	0.02808511
3.666667	0.02808511
3.683333	0.02808511
3.7	0.02808511
3.716667	0.02808511
3.733333	0.02808511
3.75	0.02808511
3.766667	0.02808511
3.783333	0.02808511
3.8	0.02808511
3.816667	0.02808511
3.833333	0.02808511
3.85	0.02808511
3.866667	0.02808511
3.883333	0.02808511
3.9	0.02808511
3.916667	0.02808511
3.933333	0.02808511
3.95	0.02808511
3.966667	0.02808511
3.983333	0.02808511
4	0.02808511
4.016667	0.02808511
4.033333	0.02808511
4.05	0.02808511
4.066667	0.02808511
4.083333	0.02808511
4.1	0.02808511
4.116667	0.02808511
4.133333	0.02808511
4.15	0.02808511
4.166667	0.02808511
4.183333	0.02808511
4.2	0.02808511
4.216667	0.02808511
4.233333	0.02808511
4.25	0.02808511
4.266667	0.02808511
4.283333	0.02808511
4.3	0.02808511
4.316667	0.02808511
4.333333	0.02808511
4.35	0.02808511
4.366667	0.02808511
4.383333	0.02808511
4.4	0.03276596
4.416667	0.03276596
4.433333	0.02808511
4.45	0.02808511
4.466667	0.02808511
4.483333	0.02808511
4.5	0.03276596
4.516667	0.03276596
4.533333	0.02808511
4.55	0.02808511
4.566667	0.02808511
4.583333	0.02808511
4.6	0.02808511
4.616667	0.02808511
4.633333	0.02808511
4.65	0.02808511
4.666667	0.03276596
4.683333	0.03276596
4.7	0.03276596
4.716667	0.03276596
4.733333	0.02808511
4.75	0.02808511
4.766667	0.02808511
4.783333	0.02808511
4.8	0.02808511
4.816667	0.03276596
4.833333	0.02808511
4.85	0.02808511
4.866667	0.02808511
4.883333	0.02808511
4.9	0.03276596
4.916667	0.03276596
4.933333	0.02808511
4.95	0.02808511
4.966667	0.02808511
4.983333	0.02808511
5	0.02808511
5.016667	0.02808511
5.033333	0.02808511
5.05	0.03276596
5.066667	0.03276596
5.083333	0.03276596
5.1	0.03276596
5.116667	0.03276596
5.133333	0.02808511
5.15	0.02808511
5.166667	0.03276596
5.183333	0.03276596
5.2	0.03276596
5.216667	0.03276596
5.233333	0.03276596
5.25	0.03276596
5.266667	0.03276596
5.283333	0.03276596
5.3	0.03276596
5.316667	0.03276596
5.333333	0.03276596
5.35	0.03276596
5.366667	0.02808511
5.383333	0.02808511
5.4	0.03276596
5.416667	0.03276596
5.433333	0.03276596
5.45	0.03276596
5.466667	0.03276596
5.483333	0.03276596
5.5	0.03276596
5.516667	0.03276596
5.533333	0.03276596
5.55	0.03276596
5.566667	0.03276596
5.583333	0.03276596
5.6	0.03276596
5.616667	0.03276596
5.633333	0.02808511
5.65	0.02808511
5.666667	0.02808511
5.683333	0.02808511
5.7	0.03276596
5.716667	0.03276596
5.733333	0.02808511
5.75	0.02808511
5.766667	0.02808511
5.783333	0.02808511
5.8	0.02808511
5.816667	0.03276596
5.833333	0.03276596
5.85	0.03276596
5.866667	0.03744681
5.883333	0.04212766
5.9	0.05148936
5.916667	0.06553191
5.933333	0.07957447
5.95	0.09829787
5.966667	0.126383
5.983333	0.1591489
6	0.1965957
6.016667	0.2480851
6.033333	0.2995745
6.05	0.3604255
6.066667	0.4306383
6.083333	0.5008511
6.1	0.5710638
6.116667	0.6412766
6.133333	0.7068085
6.15	0.7723404
6.166667	0.8331915
6.183333	0.88
6.2	0.9268085
6.216667	0.9595745
6.233333	0.9876596
6.25	1.006383
6.266667	1.025106
6.283333	1.034468
6.3	1.048511
6.316667	1.062553
6.333333	1.071915
6.35	1.090638
6.366667	1.114043
6.383333	1.142128
6.4	1.174894
6.416667	1.21234
6.433333	1.249787
6.45	1.287234
6.466667	1.32
6.483333	1.352766
6.5	1.37617
6.516667	1.394894
6.533333	1.404255
6.55	1.404255
6.566667	1.394894
6.583333	1.380851
6.6	1.357447
6.616667	1.329362
6.633333	1.291915
6.65	1.254468
6.666667	1.217021
6.683333	1.174894
6.7	1.128085
6.716667	1.085957
6.733333	1.039149
6.75	0.9970213
6.766667	0.9548936
6.783333	0.9127659
6.8	0.8706383
6.816667	0.8331915
6.833333	0.8004255
6.85	0.7629787
6.866667	0.7302128
6.883333	0.6974468
6.9	0.6646808
6.916667	0.6365957
6.933333	0.6085106
6.95	0.5757447
6.966667	0.5523404
6.983333	0.5242553
7	0.5008511
7.016667	0.4774468
7.033333	0.4540425
7.05	0.4353191
7.066667	0.4119149
7.083333	0.3931915
7.1	0.3791489
7.116667	0.3651064
7.133333	0.3510638
7.15	0.3370213
7.166667	0.3276596
7.183333	0.3229787
7.2	0.3229787
7.216667	0.3276596
7.233333	0.3276596
7.25	0.3370213
7.266667	0.3510638
7.283333	0.3651064
7.3	0.3838298
7.316667	0.407234
7.333333	0.4259574
7.35	0.4540425
7.366667	0.4821277
7.383333	0.5102128
7.4	0.5382979
7.416667	0.566383
7.433333	0.5897872
7.45	0.6178723
7.466667	0.6412766
7.483333	0.66
7.5	0.6787234
7.516667	0.6927659
7.533333	0.7021277
7.55	0.7068085
7.566667	0.7161702
7.583333	0.7161702
7.6	0.7161702
7.616667	0.7114894
7.633333	0.7068085
7.65	0.6974468
7.666667	0.6880851
7.683333	0.6787234
7.7	0.6693617
7.716667	0.6553191
7.733333	0.6365957
7.75	0.6225532
7.766667	0.6085106
7.783333	0.5944681
7.8	0.5804255
7.816667	0.566383
7.833333	0.5570213
7.85	0.5476596
7.866667	0.5429787
7.883333	0.5429787
7.9	0.5476596
7.916667	0.5570213
7.933333	0.5710638
7.95	0.5944681
7.966667	0.6225532
7.983333	0.6553191
8	0.6927659
8.016667	0.7348936
8.033333	0.7817021
8.05	0.8285106
8.066667	0.8706383
8.083333	0.9174468
8.1	0.9595745
8.116667	0.9970213
8.133333	1.025106
8.15	1.053191
8.166667	1.067234
8.183333	1.081277
8.2	1.085957
8.216667	1.081277
8.233333	1.071915
8.25	1.057872
8.266667	1.034468
8.283333	1.006383
8.3	0.973617
8.316667	0.9361702
8.333333	0.8987234
8.35	0.8565957
8.366667	0.8144681
8.383333	0.7723404
8.4	0.7302128
8.416667	0.6927659
8.433333	0.6506383
8.45	0.6131915
8.466667	0.5804255
8.483333	0.5476596
8.5	0.5148936
8.516667	0.4868085
8.533333	0.4587234
8.55	0.4306383
8.566667	0.407234
8.583333	0.3885106
8.6	0.3651064
8.616667	0.346383
8.633333	0.3276596
8.65	0.313617
8.666667	0.2948936
8.683333	0.2808511
8.7	0.2668085
8.716667	0.252766
8.733333	0.2387234
8.75	0.2293617
8.766667	0.22
8.783333	0.2106383
8.8	0.2012766
8.816667	0.1919149
8.833333	0.187234
8.85	0.1825532
8.866667	0.1825532
8.883333	0.1825532
8.9	0.1825532
8.916667	0.187234
8.933333	0.1919149
8.95	0.1965957
8.966667	0.2059574
8.983333	0.22
9	0.2340426
9.016667	0.252766
9.033333	0.2714894
9.05	0.2902128
9.066667	0.313617
9.083333	0.3370213
9.1	0.3604255
9.116667	0.3885106
9.133333	0.4119149
9.15	0.4353191
9.166667	0.4587234
9.183333	0.4821277
9.2	0.5055319
9.216667	0.5242553
9.233333	0.5429787
9.25	0.5617021
9.266667	0.5757447
9.283333	0.5897872
9.3	0.5991489
9.316667	0.6038298
9.333333	0.6131915
9.35	0.6131915
9.366667	0.6131915
9.383333	0.6131915
9.4	0.6085106
9.416667	0.6038298
9.433333	0.5944681
9.45	0.5851064
9.466667	0.5757447
9.483333	0.5617021
9.5	0.5476596
9.516667	0.533617
9.533333	0.5195745
9.55	0.5008511
9.566667	0.4821277
9.583333	0.4587234
9.6	0.4259574
9.616667	0.3885106
9.633333	0.3276596
9.65	0.2480851
9.666667	0.1310638
9.683333	-0.03744681
9.7	-0.2574468
9.716667	-0.5429787
9.733333	-0.8893617
9.75	-1.301277
9.766667	-1.769362
9.783333	-2.279574
9.8	-2.817872
9.816667	-3.360851
9.833333	-3.894468
9.85	-4.4
9.866667	-4.863404
9.883333	-5.28
9.9	-5.645106
9.916667	-5.958723
9.933333	-6.230213
9.95	-6.464255
9.966667	-6.679574
9.983333	-6.880851
10	-7.077447
10.01667	-7.264681
10.03333	-7.447234
10.05	-7.606383
10.06667	-7.732766
10.08333	-7.807659
10.1	-7.826383
10.11667	-7.774894
10.13333	-7.657872
10.15	-7.48
10.16667	-7.250638
10.18333	-6.969787
10.2	-6.65617
10.21667	-6.32383
10.23333	-5.982128
10.25	-5.640425
10.26667	-5.303404
10.28333	-4.980425
10.3	-4.67617
10.31667	-4.390638
10.33333	-4.12383
10.35	-3.880425
10.36667	-3.655745
10.38333	-3.454468
10.4	-3.267234
10.41667	-3.098723
10.43333	-2.944255
10.45	-2.80383
10.46667	-2.677447
10.48333	-2.555745
10.5	-2.434043
10.51667	-2.321702
10.53333	-2.209362
10.55	-2.09234
10.56667	-1.970638
10.58333	-1.848936
10.6	-1.717872
10.61667	-1.582128
10.63333	-1.441702
10.65	-1.301277
10.66667	-1.15617
10.68333	-1.015745
10.7	-0.88
10.71667	-0.7489362
10.73333	-0.6319149
10.75	-0.5242553
10.76667	-0.4259574
10.78333	-0.3417021
10.8	-0.2714894
10.81667	-0.2106383
10.83333	-0.1638298
10.85	-0.126383
10.86667	-0.09829787
10.88333	-0.07957447
10.9	-0.06553191
10.91667	-0.06085106
10.93333	-0.06553191
10.95	-0.07021277
10.96667	-0.07957447
10.98333	-0.08893617
11	-0.1029787
11.01667	-0.1170213
11.03333	-0.1357447
11.05	-0.1497872
11.06667	-0.1685106
11.08333	-0.187234
11.1	-0.2012766
11.11667	-0.22
11.13333	-0.2387234
11.15	-0.252766
11.16667	-0.2668085
11.18333	-0.2761702
11.2	-0.2902128
11.21667	-0.2948936
11.23333	-0.3042553
11.25	-0.3042553
11.26667	-0.3042553
11.28333	-0.2995745
11.3	-0.2902128
11.31667	-0.2808511
11.33333	-0.2714894
11.35	-0.2574468
11.36667	-0.2480851
11.38333	-0.2293617
11.4	-0.2153191
11.41667	-0.2059574
11.43333	-0.1965957
11.45	-0.187234
11.46667	-0.1778723
11.48333	-0.1731915
11.5	-0.1685106
11.51667	-0.1731915
11.53333	-0.1778723
11.55	-0.187234
11.56667	-0.2012766
11.58333	-0.2246808
11.6	-0.2574468
11.61667	-0.2995745
11.63333	-0.3510638
11.65	-0.4212766
11.66667	-0.5102128
11.68333	-0.6178723
11.7	-0.7395745
11.71667	-0.88
11.73333	-1.034468
11.75	-1.202979
11.76667	-1.37617
11.78333	-1.554043
11.8	-1.722553
11.81667	-1.886383
11.83333	-2.031489
11.85	-2.153191
11.86667	-2.25617
11.88333	-2.331064
11.9	-2.377872
11.91667	-2.405957
11.93333	-2.405957
11.95	-2.387234
11.96667	-2.354468
11.98333	-2.302979
12	-2.242128
12.01667	-2.171915
12.03333	-2.101702
12.05	-2.026808
12.06667	-1.951915
12.08333	-1.886383
12.1	-1.820851
12.11667	-1.76
12.13333	-1.713191
12.15	-1.671064
12.16667	-1.642979
12.18333	-1.619574
12.2	-1.610213
12.21667	-1.605532
12.23333	-1.610213
12.25	-1.619574
12.26667	-1.633617
12.28333	-1.65234
12.3	-1.671064
12.31667	-1.685106
12.33333	-1.699149
12.35	-1.708511
12.36667	-1.708511
12.38333	-1.70383
12.4	-1.689787
12.41667	-1.666383
12.43333	-1.642979
12.45	-1.605532
12.46667	-1.563404
12.48333	-1.516596
12.5	-1.465106
12.51667	-1.413617
12.53333	-1.357447
12.55	-1.301277
12.56667	-1.245106
12.58333	-1.184255
12.6	-1.128085
12.61667	-1.071915
12.63333	-1.015745
12.65	-0.9642553
12.66667	-0.9127659
12.68333	-0.8659574
12.7	-0.8144681
12.71667	-0.7723404
12.73333	-0.7302128
12.75	-0.6927659
12.76667	-0.6553191
12.78333	-0.6178723
12.8	-0.5851064
12.81667	-0.5523404
12.83333	-0.5289362
12.85	-0.5008511
12.86667	-0.4774468
12.88333	-0.4540425
12.9	-0.4306383
12.91667	-0.4119149
12.93333	-0.3931915
12.95	-0.3791489
12.96667	-0.3651064
12.98333	-0.3510638
13	-0.3370213
13.01667	-0.3229787
13.03333	-0.3089362
13.05	-0.2995745
13.06667	-0.2902128
13.08333	-0.2761702
13.1	-0.2668085
13.11667	-0.2574468
13.13333	-0.252766
13.15	-0.2434043
13.16667	-0.2340426
13.18333	-0.2246808
13.2	-0.22
13.21667	-0.2106383
13.23333	-0.2059574
13.25	-0.1965957
13.26667	-0.1919149
13.28333	-0.187234
13.3	-0.1778723
13.31667	-0.1731915
13.33333	-0.1685106
13.35	-0.1685106
13.36667	-0.1638298
13.38333	-0.1591489
13.4	-0.1544681
13.41667	-0.1497872
13.43333	-0.1451064
13.45	-0.1451064
13.46667	-0.1404255
13.48333	-0.1357447
13.5	-0.1357447
13.51667	-0.1310638
13.53333	-0.1310638
13.55	-0.126383
13.56667	-0.126383
13.58333	-0.1217021
13.6	-0.1217021
13.61667	-0.1170213
13.63333	-0.1170213
13.65	-0.1170213
13.66667	-0.1123404
13.68333	-0.1123404
13.7	-0.1123404
13.71667	-0.1076596
13.73333	-0.1076596
13.75	-0.1076596
13.76667	-0.1076596
13.78333	-0.1076596
13.8	-0.1076596
13.81667	-0.1076596
13.83333	-0.1076596
13.85	-0.1076596
13.86667	-0.1076596
13.88333	-0.1076596
13.9	-0.1076596
13.91667	-0.1076596
13.93333	-0.1076596
13.95	-0.1076596
13.96667	-0.1076596
13.98333	-0.1076596
14	-0.1076596
14.01667	-0.1076596
14.03333	-0.1123404
14.05	-0.1123404
14.06667	-0.1123404
14.08333	-0.1123404
14.1	-0.1123404
14.11667	-0.1123404
14.13333	-0.1123404
14.15	-0.1123404
14.16667	-0.1170213
14.18333	-0.1170213
14.2	-0.1170213
14.21667	-0.1170213
14.23333	-0.1170213
14.25	-0.1170213
14.26667	-0.1170213
14.28333	-0.1170213
14.3	-0.1170213
14.31667	-0.1170213
14.33333	-0.1217021
14.35	-0.1217021
14.36667	-0.1170213
14.38333	-0.1170213
14.4	-0.1170213
14.41667	-0.1170213
14.43333	-0.1170213
14.45	-0.1170213
14.46667	-0.1170213
14.48333	-0.1170213
14.5	-0.1170213
14.51667	-0.1123404
14.53333	-0.1123404
14.55	-0.1123404
14.56667	-0.1123404
14.58333	-0.1123404
14.6	-0.1076596
14.61667	-0.1076596
14.63333	-0.1076596
14.65	-0.1076596
14.66667	-0.1029787
14.68333	-0.1029787
14.7	-0.09829787
14.71667	-0.09829787
14.73333	-0.09829787
14.75	-0.09829787
14.76667	-0.09361702
14.78333	-0.09361702
14.8	-0.08893617
14.81667	-0.08893617
14.83333	-0.08893617
14.85	-0.08425532
14.86667	-0.08425532
14.88333	-0.07957447
14.9	-0.07957447
14.91667	-0.07489362
14.93333	-0.07489362
14.95	-0.07489362
14.96667	-0.07021277
14.98333	-0.07021277
15	-0.07021277
15.01667	-0.06553191
15.03333	-0.06553191
15.05	-0.06085106
15.06667	-0.06085106
15.08333	-0.06085106
15.1	-0.05617021
15.11667	-0.05617021
15.13333	-0.05148936
15.15	-0.05148936
15.16667	-0.05148936
15.18333	-0.04680851
15.2	-0.04680851
15.21667	-0.04212766
15.23333	-0.04212766
15.25	-0.04212766
15.26667	-0.04212766
15.28333	-0.03744681
15.3	-0.03744681
15.31667	-0.03276596
15.33333	-0.03276596
15.35	-0.03276596
15.36667	-0.03276596
15.38333	-0.02808511
15.4	-0.02808511
15.41667	-0.02340426
15.43333	-0.02340426
15.45	-0.02340426
15.46667	-0.02340426
15.48333	-0.0187234
15.5	-0.0187234
15.51667	-0.0187234
15.53333	-0.0187234
15.55	-0.0187234
15.56667	-0.01404255
15.58333	-0.01404255
15.6	-0.01404255
15.61667	-0.009361702
15.63333	-0.009361702
15.65	-0.009361702
15.66667	-0.009361702
15.68333	-0.009361702
15.7	-0.004680851
15.71667	-0.004680851
15.73333	-0.004680851
15.75	-0.004680851
15.76667	-0.004680851
15.78333	-0.004680851
15.8	0
15.81667	0
15.83333	0
15.85	0
15.86667	0
15.88333	0.004680851
15.9	0.004680851
15.91667	0.004680851
15.93333	0.004680851
15.95	0.004680851
15.96667	0.004680851
15.98333	0.004680851
16	0.004680851
16.01667	0.009361702
16.03333	0.009361702
16.05	0.009361702
16.06667	0.009361702
16.08333	0.009361702
16.1	0.009361702
16.11667	0.01404255
16.13333	0.01404255
16.15	0.01404255
16.16667	0.01404255
16.18333	0.01404255
16.2	0.01404255
16.21667	0.01404255
16.23333	0.01404255
16.25	0.01404255
16.26667	0.01404255
16.28333	0.01404255
16.3	0.01404255
16.31667	0.0187234
16.33333	0.01404255
16.35	0.01404255
16.36667	0.0187234
16.38333	0.0187234
16.4	0.0187234
16.41667	0.0187234
16.43333	0.0187234
16.45	0.0187234
16.46667	0.0187234
16.48333	0.0187234
16.5	0.0187234
16.51667	0.0187234
16.53333	0.0187234
16.55	0.0187234
16.56667	0.0187234
16.58333	0.0187234
16.6	0.0187234
16.61667	0.0187234
16.63333	0.0187234
16.65	0.0187234
16.66667	0.0187234
16.68333	0.0187234
16.7	0.0187234
16.71667	0.02340426
16.73333	0.0187234
16.75	0.0187234
16.76667	0.0187234
16.78333	0.0187234
16.8	0.0187234
16.81667	0.02340426
16.83333	0.0187234
16.85	0.0187234
16.86667	0.0187234
16.88333	0.0187234
16.9	0.02340426
16.91667	0.02340426
16.93333	0.0187234
16.95	0.0187234
16.96667	0.0187234
16.98333	0.0187234
17	0.0187234
17.01667	0.02340426
17.03333	0.0187234
17.05	0.0187234
17.06667	0.0187234
17.08333	0.0187234
17.1	0.02340426
17.11667	0.02340426
17.13333	0.0187234
17.15	0.0187234
17.16667	0.0187234
17.18333	0.0187234
17.2	0.02340426
17.21667	0.02340426
17.23333	0.02340426
17.25	0.0187234
17.26667	0.0187234
17.28333	0.0187234
17.3	0.0187234
17.31667	0.02340426
17.33333	0.0187234
17.35	0.0187234
17.36667	0.0187234
17.38333	0.0187234
17.4	0.0187234
17.41667	0.02340426
17.43333	0.0187234
17.45	0.0187234
17.46667	0.0187234
17.48333	0.02340426
17.5	0.02340426
17.51667	0.02340426
17.53333	0.0187234
17.55	0.0187234
17.56667	0.0187234
17.58333	0.0187234
17.6	0.0187234
17.61667	0.0187234
17.63333	0.0187234
17.65	0.0187234
17.66667	0.0187234
17.68333	0.0187234
17.7	0.0187234
17.71667	0.0187234
17.73333	0.0187234
17.75	0.0187234
17.76667	0.0187234
17.78333	0.0187234
17.8	0.0187234
17.81667	0.0187234
17.83333	0.0187234
17.85	0.0187234
17.86667	0.0187234
17.88333	0.0187234
17.9	0.0187234
17.91667	0.0187234
17.93333	0.0187234
17.95	0.0187234
17.96667	0.0187234
17.98333	0.0187234
18	0.0187234
18.01667	0.0187234
18.03333	0.0187234
18.05	0.0187234
18.06667	0.0187234
18.08333	0.0187234
18.1	0.0187234
18.11667	0.0187234
18.13333	0.0187234
18.15	0.0187234
18.16667	0.0187234
18.18333	0.0187234
18.2	0.0187234
18.21667	0.0187234
18.23333	0.0187234
18.25	0.0187234
18.26667	0.0187234
18.28333	0.0187234
18.3	0.0187234
18.31667	0.0187234
18.33333	0.0187234
18.35	0.0187234
18.36667	0.0187234
18.38333	0.0187234
18.4	0.0187234
18.41667	0.0187234
18.43333	0.0187234
18.45	0.0187234
18.46667	0.0187234
18.48333	0.0187234
18.5	0.0187234
18.51667	0.0187234
18.53333	0.0187234
18.55	0.0187234
18.56667	0.0187234
18.58333	0.0187234
18.6	0.0187234
18.61667	0.0187234
18.63333	0.0187234
18.65	0.0187234
18.66667	0.0187234
18.68333	0.0187234
18.7	0.0187234
18.71667	0.0187234
18.73333	0.0187234
18.75	0.0187234
18.76667	0.0187234
18.78333	0.0187234
18.8	0.0187234
18.81667	0.0187234
18.83333	0.0187234
18.85	0.0187234
18.86667	0.0187234
18.88333	0.0187234
18.9	0.0187234
18.91667	0.0187234
18.93333	0.0187234
18.95	0.0187234
18.96667	0.0187234
18.98333	0.0187234
19	0.0187234
19.01667	0.0187234
19.03333	0.0187234
19.05	0.0187234
19.06667	0.0187234
19.08333	0.0187234
19.1	0.0187234
19.11667	0.02340426
19.13333	0.0187234
19.15	0.0187234
19.16667	0.0187234
19.18333	0.0187234
19.2	0.02340426
19.21667	0.02340426
19.23333	0.0187234
19.25	0.0187234
19.26667	0.0187234
19.28333	0.0187234
19.3	0.02340426
19.31667	0.02340426
19.33333	0.0187234
19.35	0.0187234
19.36667	0.0187234
19.38333	0.0187234
19.4	0.0187234
19.41667	0.02340426
19.43333	0.0187234
19.45	0.0187234
19.46667	0.02340426
19.48333	0.02340426
19.5	0.02340426
19.51667	0.02340426
19.53333	0.02340426
19.55	0.02340426
19.56667	0.0187234
19.58333	0.02340426
19.6	0.02340426
19.61667	0.02340426
19.63333	0.0187234
19.65	0.02340426
19.66667	0.02340426
19.68333	0.02340426
19.7	0.02340426
19.71667	0.02340426
19.73333	0.02340426
19.75	0.02340426
19.76667	0.02340426
19.78333	0.02340426
19.8	0.02340426
19.81667	0.02340426
19.83333	0.02340426
19.85	0.02340426
19.86667	0.02340426
19.88333	0.02340426
19.9	0.02340426
19.91667	0.02340426
19.93333	0.02340426
19.95	0.02340426
19.96667	0.02340426
19.98333	0.02340426
20	0.02340426
