"Sample Set Id"	1752
"Sample Set Name"	"sad100124HPA"
"System Name"	"System III"
"Instrument Method Name"	"System 3_RI"
"SampleName"	"PMMAfourplus"
"Injection"	1
"Vial"	"22"
"Channel"	"410 "
0.01666667	0.01404255
0.03333333	0.004680851
0.05	0
0.06666667	0
0.08333333	0
0.1	0
0.1166667	0
0.1333333	0
0.15	0
0.1666667	0
0.1833333	0
0.2	0
0.2166667	0
0.2333333	0
0.25	0
0.2666667	0
0.2833333	0
0.3	0.004680851
0.3166667	0.004680851
0.3333333	0
0.35	0
0.3666667	0.004680851
0.3833333	0.004680851
0.4	0.004680851
0.4166667	0.004680851
0.4333333	0.004680851
0.45	0.004680851
0.4666667	0.004680851
0.4833333	0.004680851
0.5	0.009361702
0.5166667	0.009361702
0.5333333	0.004680851
0.55	0.004680851
0.5666667	0.009361702
0.5833333	0.009361702
0.6	0.009361702
0.6166667	0.009361702
0.6333333	0.009361702
0.65	0.009361702
0.6666667	0.009361702
0.6833333	0.009361702
0.7	0.009361702
0.7166667	0.009361702
0.7333333	0.009361702
0.75	0.009361702
0.7666667	0.009361702
0.7833333	0.009361702
0.8	0.009361702
0.8166667	0.009361702
0.8333333	0.009361702
0.85	0.009361702
0.8666667	0.009361702
0.8833333	0.01404255
0.9	0.01404255
0.9166667	0.01404255
0.9333333	0.01404255
0.95	0.01404255
0.9666667	0.01404255
0.9833333	0.01404255
1	0.01404255
1.016667	0.01404255
1.033333	0.01404255
1.05	0.01404255
1.066667	0.01404255
1.083333	0.01404255
1.1	0.01404255
1.116667	0.01404255
1.133333	0.01404255
1.15	0.01404255
1.166667	0.01404255
1.183333	0.01404255
1.2	0.01404255
1.216667	0.01404255
1.233333	0.01404255
1.25	0.01404255
1.266667	0.01404255
1.283333	0.01404255
1.3	0.01404255
1.316667	0.01404255
1.333333	0.01404255
1.35	0.01404255
1.366667	0.01404255
1.383333	0.01404255
1.4	0.01404255
1.416667	0.01404255
1.433333	0.01404255
1.45	0.01404255
1.466667	0.01404255
1.483333	0.01404255
1.5	0.01404255
1.516667	0.01404255
1.533333	0.01404255
1.55	0.01404255
1.566667	0.01404255
1.583333	0.01404255
1.6	0.01404255
1.616667	0.01404255
1.633333	0.01404255
1.65	0.01404255
1.666667	0.01404255
1.683333	0.01404255
1.7	0.01404255
1.716667	0.01404255
1.733333	0.009361702
1.75	0.009361702
1.766667	0.009361702
1.783333	0.01404255
1.8	0.01404255
1.816667	0.009361702
1.833333	0.009361702
1.85	0.009361702
1.866667	0.009361702
1.883333	0.01404255
1.9	0.01404255
1.916667	0.009361702
1.933333	0.009361702
1.95	0.009361702
1.966667	0.009361702
1.983333	0.009361702
2	0.009361702
2.016667	0.009361702
2.033333	0.009361702
2.05	0.009361702
2.066667	0.009361702
2.083333	0.009361702
2.1	0.009361702
2.116667	0.009361702
2.133333	0.009361702
2.15	0.009361702
2.166667	0.009361702
2.183333	0.009361702
2.2	0.009361702
2.216667	0.009361702
2.233333	0.009361702
2.25	0.009361702
2.266667	0.009361702
2.283333	0.009361702
2.3	0.009361702
2.316667	0.01404255
2.333333	0.009361702
2.35	0.009361702
2.366667	0.009361702
2.383333	0.009361702
2.4	0.009361702
2.416667	0.009361702
2.433333	0.009361702
2.45	0.009361702
2.466667	0.009361702
2.483333	0.009361702
2.5	0.009361702
2.516667	0.009361702
2.533333	0.009361702
2.55	0.009361702
2.566667	0.009361702
2.583333	0.009361702
2.6	0.009361702
2.616667	0.009361702
2.633333	0.009361702
2.65	0.009361702
2.666667	0.009361702
2.683333	0.009361702
2.7	0.009361702
2.716667	0.009361702
2.733333	0.009361702
2.75	0.009361702
2.766667	0.009361702
2.783333	0.009361702
2.8	0.009361702
2.816667	0.009361702
2.833333	0.009361702
2.85	0.009361702
2.866667	0.009361702
2.883333	0.009361702
2.9	0.009361702
2.916667	0.009361702
2.933333	0.009361702
2.95	0.009361702
2.966667	0.009361702
2.983333	0.009361702
3	0.009361702
3.016667	0.009361702
3.033333	0.009361702
3.05	0.009361702
3.066667	0.009361702
3.083333	0.009361702
3.1	0.009361702
3.116667	0.009361702
3.133333	0.009361702
3.15	0.009361702
3.166667	0.009361702
3.183333	0.009361702
3.2	0.009361702
3.216667	0.009361702
3.233333	0.009361702
3.25	0.009361702
3.266667	0.009361702
3.283333	0.01404255
3.3	0.01404255
3.316667	0.009361702
3.333333	0.009361702
3.35	0.009361702
3.366667	0.009361702
3.383333	0.009361702
3.4	0.009361702
3.416667	0.01404255
3.433333	0.009361702
3.45	0.01404255
3.466667	0.01404255
3.483333	0.01404255
3.5	0.01404255
3.516667	0.01404255
3.533333	0.009361702
3.55	0.009361702
3.566667	0.009361702
3.583333	0.01404255
3.6	0.01404255
3.616667	0.01404255
3.633333	0.01404255
3.65	0.01404255
3.666667	0.01404255
3.683333	0.01404255
3.7	0.01404255
3.716667	0.01404255
3.733333	0.01404255
3.75	0.01404255
3.766667	0.01404255
3.783333	0.01404255
3.8	0.01404255
3.816667	0.01404255
3.833333	0.01404255
3.85	0.01404255
3.866667	0.01404255
3.883333	0.01404255
3.9	0.01404255
3.916667	0.01404255
3.933333	0.01404255
3.95	0.01404255
3.966667	0.01404255
3.983333	0.01404255
4	0.01404255
4.016667	0.01404255
4.033333	0.01404255
4.05	0.01404255
4.066667	0.01404255
4.083333	0.01404255
4.1	0.01404255
4.116667	0.01404255
4.133333	0.01404255
4.15	0.01404255
4.166667	0.01404255
4.183333	0.01404255
4.2	0.01404255
4.216667	0.01404255
4.233333	0.01404255
4.25	0.01404255
4.266667	0.01404255
4.283333	0.01404255
4.3	0.01404255
4.316667	0.01404255
4.333333	0.01404255
4.35	0.009361702
4.366667	0.009361702
4.383333	0.009361702
4.4	0.009361702
4.416667	0.009361702
4.433333	0.009361702
4.45	0.009361702
4.466667	0.009361702
4.483333	0.009361702
4.5	0.01404255
4.516667	0.01404255
4.533333	0.009361702
4.55	0.009361702
4.566667	0.009361702
4.583333	0.009361702
4.6	0.009361702
4.616667	0.009361702
4.633333	0.009361702
4.65	0.009361702
4.666667	0.009361702
4.683333	0.009361702
4.7	0.009361702
4.716667	0.009361702
4.733333	0.009361702
4.75	0.009361702
4.766667	0.009361702
4.783333	0.009361702
4.8	0.009361702
4.816667	0.009361702
4.833333	0.009361702
4.85	0.009361702
4.866667	0.009361702
4.883333	0.009361702
4.9	0.009361702
4.916667	0.009361702
4.933333	0.009361702
4.95	0.009361702
4.966667	0.009361702
4.983333	0.009361702
5	0.009361702
5.016667	0.009361702
5.033333	0.009361702
5.05	0.009361702
5.066667	0.009361702
5.083333	0.009361702
5.1	0.009361702
5.116667	0.009361702
5.133333	0.004680851
5.15	0.004680851
5.166667	0.004680851
5.183333	0.004680851
5.2	0.009361702
5.216667	0.004680851
5.233333	0.004680851
5.25	0.009361702
5.266667	0.009361702
5.283333	0.009361702
5.3	0.009361702
5.316667	0.009361702
5.333333	0.004680851
5.35	0.004680851
5.366667	0.004680851
5.383333	0.004680851
5.4	0.004680851
5.416667	0.004680851
5.433333	0.004680851
5.45	0.004680851
5.466667	0.004680851
5.483333	0.009361702
5.5	0.009361702
5.516667	0.009361702
5.533333	0.004680851
5.55	0.004680851
5.566667	0.004680851
5.583333	0.004680851
5.6	0.004680851
5.616667	0.004680851
5.633333	0.004680851
5.65	0.004680851
5.666667	0.004680851
5.683333	0.004680851
5.7	0.004680851
5.716667	0.004680851
5.733333	0.004680851
5.75	0.004680851
5.766667	0.004680851
5.783333	0.004680851
5.8	0.004680851
5.816667	0.009361702
5.833333	0.009361702
5.85	0.009361702
5.866667	0.01404255
5.883333	0.0187234
5.9	0.02340426
5.916667	0.03276596
5.933333	0.04680851
5.95	0.06085106
5.966667	0.07957447
5.983333	0.1029787
6	0.1310638
6.016667	0.1638298
6.033333	0.1965957
6.05	0.2340426
6.066667	0.2714894
6.083333	0.3089362
6.1	0.346383
6.116667	0.3838298
6.133333	0.4119149
6.15	0.4353191
6.166667	0.4587234
6.183333	0.4774468
6.2	0.4961702
6.216667	0.5055319
6.233333	0.5102128
6.25	0.5148936
6.266667	0.5242553
6.283333	0.5242553
6.3	0.533617
6.316667	0.5382979
6.333333	0.5476596
6.35	0.5617021
6.366667	0.5757447
6.383333	0.5944681
6.4	0.6131915
6.416667	0.6319149
6.433333	0.6506383
6.45	0.6693617
6.466667	0.6834042
6.483333	0.6974468
6.5	0.7021277
6.516667	0.7068085
6.533333	0.7021277
6.55	0.6927659
6.566667	0.6834042
6.583333	0.6693617
6.6	0.6506383
6.616667	0.6319149
6.633333	0.6085106
6.65	0.5897872
6.666667	0.566383
6.683333	0.5429787
6.7	0.5195745
6.716667	0.4961702
6.733333	0.472766
6.75	0.4493617
6.766667	0.4306383
6.783333	0.407234
6.8	0.3885106
6.816667	0.3744681
6.833333	0.3557447
6.85	0.3370213
6.866667	0.3229787
6.883333	0.3089362
6.9	0.2948936
6.916667	0.2808511
6.933333	0.2668085
6.95	0.252766
6.966667	0.2387234
6.983333	0.2293617
7	0.2153191
7.016667	0.2059574
7.033333	0.1965957
7.05	0.187234
7.066667	0.1778723
7.083333	0.1685106
7.1	0.1638298
7.116667	0.1591489
7.133333	0.1497872
7.15	0.1497872
7.166667	0.1497872
7.183333	0.1497872
7.2	0.1497872
7.216667	0.1497872
7.233333	0.1544681
7.25	0.1638298
7.266667	0.1731915
7.283333	0.1825532
7.3	0.1965957
7.316667	0.2106383
7.333333	0.22
7.35	0.2340426
7.366667	0.252766
7.383333	0.2668085
7.4	0.2808511
7.416667	0.2948936
7.433333	0.3089362
7.45	0.3182979
7.466667	0.3276596
7.483333	0.3370213
7.5	0.346383
7.516667	0.3510638
7.533333	0.3557447
7.55	0.3557447
7.566667	0.3557447
7.583333	0.3557447
7.6	0.3510638
7.616667	0.346383
7.633333	0.3417021
7.65	0.3370213
7.666667	0.3276596
7.683333	0.3229787
7.7	0.313617
7.716667	0.3089362
7.733333	0.2995745
7.75	0.2902128
7.766667	0.2808511
7.783333	0.2761702
7.8	0.2668085
7.816667	0.2621277
7.833333	0.2574468
7.85	0.2574468
7.866667	0.2574468
7.883333	0.2574468
7.9	0.2668085
7.916667	0.2714894
7.933333	0.2855319
7.95	0.2995745
7.966667	0.313617
7.983333	0.3370213
8	0.3604255
8.016667	0.3838298
8.033333	0.407234
8.05	0.4353191
8.066667	0.4587234
8.083333	0.4774468
8.1	0.5008511
8.116667	0.5148936
8.133333	0.5242553
8.15	0.533617
8.166667	0.5382979
8.183333	0.5429787
8.2	0.5382979
8.216667	0.533617
8.233333	0.5242553
8.25	0.5102128
8.266667	0.4961702
8.283333	0.4821277
8.3	0.4634042
8.316667	0.44
8.333333	0.4212766
8.35	0.3978723
8.366667	0.3744681
8.383333	0.3557447
8.4	0.3323404
8.416667	0.313617
8.433333	0.2902128
8.45	0.2714894
8.466667	0.252766
8.483333	0.2340426
8.5	0.22
8.516667	0.2012766
8.533333	0.187234
8.55	0.1731915
8.566667	0.1638298
8.583333	0.1544681
8.6	0.1451064
8.616667	0.1357447
8.633333	0.126383
8.65	0.1217021
8.666667	0.1123404
8.683333	0.1076596
8.7	0.1029787
8.716667	0.09361702
8.733333	0.08893617
8.75	0.08425532
8.766667	0.07957447
8.783333	0.07957447
8.8	0.07489362
8.816667	0.07489362
8.833333	0.07021277
8.85	0.07021277
8.866667	0.07021277
8.883333	0.07021277
8.9	0.07489362
8.916667	0.07957447
8.933333	0.07957447
8.95	0.08893617
8.966667	0.09361702
8.983333	0.1029787
9	0.1123404
9.016667	0.1217021
9.033333	0.1357447
9.05	0.1451064
9.066667	0.1591489
9.083333	0.1731915
9.1	0.187234
9.116667	0.2012766
9.133333	0.2106383
9.15	0.2246808
9.166667	0.2340426
9.183333	0.2480851
9.2	0.2574468
9.216667	0.2668085
9.233333	0.2714894
9.25	0.2808511
9.266667	0.2855319
9.283333	0.2902128
9.3	0.2948936
9.316667	0.2995745
9.333333	0.2995745
9.35	0.2948936
9.366667	0.2948936
9.383333	0.2902128
9.4	0.2902128
9.416667	0.2855319
9.433333	0.2761702
9.45	0.2714894
9.466667	0.2668085
9.483333	0.2574468
9.5	0.2480851
9.516667	0.2434043
9.533333	0.2340426
9.55	0.22
9.566667	0.2106383
9.583333	0.1965957
9.6	0.1778723
9.616667	0.1497872
9.633333	0.1123404
9.65	0.05148936
9.666667	-0.03276596
9.683333	-0.1497872
9.7	-0.3042553
9.716667	-0.4961702
9.733333	-0.7302128
9.75	-0.9876596
9.766667	-1.273191
9.783333	-1.568085
9.8	-1.862979
9.816667	-2.148511
9.833333	-2.405957
9.85	-2.64
9.866667	-2.836596
9.883333	-3.005106
9.9	-3.140851
9.916667	-3.257872
9.933333	-3.365532
9.95	-3.459149
9.966667	-3.552766
9.983333	-3.641702
10	-3.730638
10.01667	-3.810213
10.03333	-3.875745
10.05	-3.917872
10.06667	-3.931915
10.08333	-3.917872
10.1	-3.866383
10.11667	-3.782128
10.13333	-3.674468
10.15	-3.538723
10.16667	-3.388936
10.18333	-3.220425
10.2	-3.047234
10.21667	-2.874043
10.23333	-2.705532
10.25	-2.537021
10.26667	-2.382553
10.28333	-2.232766
10.3	-2.09234
10.31667	-1.965957
10.33333	-1.853617
10.35	-1.745957
10.36667	-1.65234
10.38333	-1.568085
10.4	-1.488511
10.41667	-1.418298
10.43333	-1.352766
10.45	-1.291915
10.46667	-1.235745
10.48333	-1.179574
10.5	-1.123404
10.51667	-1.067234
10.53333	-1.011064
10.55	-0.9502128
10.56667	-0.8893617
10.58333	-0.8238298
10.6	-0.753617
10.61667	-0.6834042
10.63333	-0.6131915
10.65	-0.5429787
10.66667	-0.472766
10.68333	-0.4025532
10.7	-0.3370213
10.71667	-0.2761702
10.73333	-0.2246808
10.75	-0.1778723
10.76667	-0.1404255
10.78333	-0.1076596
10.8	-0.07957447
10.81667	-0.05617021
10.83333	-0.04212766
10.85	-0.03276596
10.86667	-0.02808511
10.88333	-0.02340426
10.9	-0.02340426
10.91667	-0.02808511
10.93333	-0.03744681
10.95	-0.04212766
10.96667	-0.04680851
10.98333	-0.05617021
11	-0.06553191
11.01667	-0.07489362
11.03333	-0.08425532
11.05	-0.09361702
11.06667	-0.1029787
11.08333	-0.1123404
11.1	-0.1217021
11.11667	-0.1310638
11.13333	-0.1357447
11.15	-0.1451064
11.16667	-0.1497872
11.18333	-0.1544681
11.2	-0.1591489
11.21667	-0.1591489
11.23333	-0.1591489
11.25	-0.1591489
11.26667	-0.1591489
11.28333	-0.1544681
11.3	-0.1451064
11.31667	-0.1404255
11.33333	-0.1357447
11.35	-0.126383
11.36667	-0.1217021
11.38333	-0.1123404
11.4	-0.1029787
11.41667	-0.09829787
11.43333	-0.09361702
11.45	-0.08893617
11.46667	-0.08893617
11.48333	-0.08425532
11.5	-0.08425532
11.51667	-0.08893617
11.53333	-0.09361702
11.55	-0.1029787
11.56667	-0.1123404
11.58333	-0.1310638
11.6	-0.1497872
11.61667	-0.1778723
11.63333	-0.2106383
11.65	-0.2574468
11.66667	-0.3089362
11.68333	-0.3744681
11.7	-0.4446808
11.71667	-0.5289362
11.73333	-0.6178723
11.75	-0.7068085
11.76667	-0.8004255
11.78333	-0.8940425
11.8	-0.9782979
11.81667	-1.053191
11.83333	-1.118723
11.85	-1.174894
11.86667	-1.21234
11.88333	-1.235745
11.9	-1.245106
11.91667	-1.245106
11.93333	-1.235745
11.95	-1.21234
11.96667	-1.184255
11.98333	-1.151489
12	-1.109362
12.01667	-1.071915
12.03333	-1.029787
12.05	-0.9923404
12.06667	-0.9548936
12.08333	-0.9221276
12.1	-0.8893617
12.11667	-0.8612766
12.13333	-0.8378723
12.15	-0.8238298
12.16667	-0.8144681
12.18333	-0.8051064
12.2	-0.8004255
12.21667	-0.8097872
12.23333	-0.8144681
12.25	-0.8238298
12.26667	-0.8331915
12.28333	-0.8425532
12.3	-0.8519149
12.31667	-0.8565957
12.33333	-0.8612766
12.35	-0.8612766
12.36667	-0.8612766
12.38333	-0.8565957
12.4	-0.8425532
12.41667	-0.8285106
12.43333	-0.8097872
12.45	-0.786383
12.46667	-0.7629787
12.48333	-0.7348936
12.5	-0.7068085
12.51667	-0.6787234
12.53333	-0.6506383
12.55	-0.6178723
12.56667	-0.5897872
12.58333	-0.5617021
12.6	-0.533617
12.61667	-0.5055319
12.63333	-0.4774468
12.65	-0.4493617
12.66667	-0.4259574
12.68333	-0.4025532
12.7	-0.3791489
12.71667	-0.3604255
12.73333	-0.3370213
12.75	-0.3182979
12.76667	-0.3042553
12.78333	-0.2902128
12.8	-0.2714894
12.81667	-0.2574468
12.83333	-0.2434043
12.85	-0.2340426
12.86667	-0.22
12.88333	-0.2106383
12.9	-0.2012766
12.91667	-0.1919149
12.93333	-0.187234
12.95	-0.1778723
12.96667	-0.1731915
12.98333	-0.1638298
13	-0.1591489
13.01667	-0.1544681
13.03333	-0.1451064
13.05	-0.1404255
13.06667	-0.1357447
13.08333	-0.1310638
13.1	-0.126383
13.11667	-0.1217021
13.13333	-0.1170213
13.15	-0.1170213
13.16667	-0.1123404
13.18333	-0.1076596
13.2	-0.1029787
13.21667	-0.09829787
13.23333	-0.09829787
13.25	-0.09361702
13.26667	-0.08893617
13.28333	-0.08893617
13.3	-0.08425532
13.31667	-0.07957447
13.33333	-0.07957447
13.35	-0.07489362
13.36667	-0.07489362
13.38333	-0.07489362
13.4	-0.07021277
13.41667	-0.07021277
13.43333	-0.06553191
13.45	-0.06553191
13.46667	-0.06553191
13.48333	-0.06085106
13.5	-0.06085106
13.51667	-0.05617021
13.53333	-0.05617021
13.55	-0.05617021
13.56667	-0.05617021
13.58333	-0.05617021
13.6	-0.05148936
13.61667	-0.05148936
13.63333	-0.05148936
13.65	-0.05148936
13.66667	-0.05148936
13.68333	-0.04680851
13.7	-0.04680851
13.71667	-0.04680851
13.73333	-0.04680851
13.75	-0.04680851
13.76667	-0.04680851
13.78333	-0.04680851
13.8	-0.04680851
13.81667	-0.04680851
13.83333	-0.04680851
13.85	-0.04680851
13.86667	-0.04680851
13.88333	-0.04680851
13.9	-0.04680851
13.91667	-0.04680851
13.93333	-0.04680851
13.95	-0.04680851
13.96667	-0.04680851
13.98333	-0.04680851
14	-0.04680851
14.01667	-0.04680851
14.03333	-0.04680851
14.05	-0.04680851
14.06667	-0.04680851
14.08333	-0.04680851
14.1	-0.04680851
14.11667	-0.04680851
14.13333	-0.05148936
14.15	-0.05148936
14.16667	-0.05148936
14.18333	-0.05148936
14.2	-0.05148936
14.21667	-0.05148936
14.23333	-0.05148936
14.25	-0.05148936
14.26667	-0.05148936
14.28333	-0.05148936
14.3	-0.05148936
14.31667	-0.05148936
14.33333	-0.05148936
14.35	-0.05148936
14.36667	-0.05148936
14.38333	-0.05148936
14.4	-0.05148936
14.41667	-0.05148936
14.43333	-0.05148936
14.45	-0.05148936
14.46667	-0.05148936
14.48333	-0.05148936
14.5	-0.05148936
14.51667	-0.04680851
14.53333	-0.04680851
14.55	-0.04680851
14.56667	-0.04680851
14.58333	-0.04680851
14.6	-0.04680851
14.61667	-0.04680851
14.63333	-0.04680851
14.65	-0.04680851
14.66667	-0.04212766
14.68333	-0.04212766
14.7	-0.04212766
14.71667	-0.04212766
14.73333	-0.04212766
14.75	-0.04212766
14.76667	-0.03744681
14.78333	-0.03744681
14.8	-0.03744681
14.81667	-0.03744681
14.83333	-0.03744681
14.85	-0.03744681
14.86667	-0.03276596
14.88333	-0.03276596
14.9	-0.03276596
14.91667	-0.02808511
14.93333	-0.02808511
14.95	-0.02808511
14.96667	-0.02808511
14.98333	-0.02808511
15	-0.02808511
15.01667	-0.02340426
15.03333	-0.02340426
15.05	-0.02340426
15.06667	-0.02340426
15.08333	-0.02340426
15.1	-0.02340426
15.11667	-0.0187234
15.13333	-0.0187234
15.15	-0.0187234
15.16667	-0.0187234
15.18333	-0.0187234
15.2	-0.0187234
15.21667	-0.01404255
15.23333	-0.01404255
15.25	-0.01404255
15.26667	-0.01404255
15.28333	-0.01404255
15.3	-0.009361702
15.31667	-0.009361702
15.33333	-0.009361702
15.35	-0.009361702
15.36667	-0.009361702
15.38333	-0.009361702
15.4	-0.009361702
15.41667	-0.004680851
15.43333	-0.004680851
15.45	-0.004680851
15.46667	-0.004680851
15.48333	-0.004680851
15.5	-0.004680851
15.51667	0
15.53333	-0.004680851
15.55	-0.004680851
15.56667	0
15.58333	0
15.6	0
15.61667	0
15.63333	0
15.65	0
15.66667	0
15.68333	0
15.7	0
15.71667	0.004680851
15.73333	0
15.75	0.004680851
15.76667	0.004680851
15.78333	0.004680851
15.8	0.004680851
15.81667	0.004680851
15.83333	0.004680851
15.85	0.004680851
15.86667	0.004680851
15.88333	0.004680851
15.9	0.004680851
15.91667	0.004680851
15.93333	0.004680851
15.95	0.004680851
15.96667	0.004680851
15.98333	0.004680851
16	0.004680851
16.01667	0.004680851
16.03333	0.004680851
16.05	0.004680851
16.06667	0.004680851
16.08333	0.004680851
16.1	0.004680851
16.11667	0.004680851
16.13333	0.004680851
16.15	0.004680851
16.16667	0.004680851
16.18333	0.004680851
16.2	0.004680851
16.21667	0.004680851
16.23333	0.004680851
16.25	0.004680851
16.26667	0.004680851
16.28333	0.004680851
16.3	0.004680851
16.31667	0.004680851
16.33333	0.004680851
16.35	0.004680851
16.36667	0.004680851
16.38333	0.004680851
16.4	0.004680851
16.41667	0.004680851
16.43333	0.004680851
16.45	0.004680851
16.46667	0.004680851
16.48333	0.004680851
16.5	0.004680851
16.51667	0.004680851
16.53333	0.004680851
16.55	0.004680851
16.56667	0.004680851
16.58333	0.004680851
16.6	0.004680851
16.61667	0.004680851
16.63333	0.004680851
16.65	0.004680851
16.66667	0.004680851
16.68333	0.004680851
16.7	0.004680851
16.71667	0.004680851
16.73333	0.004680851
16.75	0.004680851
16.76667	0.004680851
16.78333	0.004680851
16.8	0.004680851
16.81667	0.004680851
16.83333	0.004680851
16.85	0.004680851
16.86667	0.004680851
16.88333	0.004680851
16.9	0.004680851
16.91667	0.004680851
16.93333	0.004680851
16.95	0.004680851
16.96667	0.004680851
16.98333	0.004680851
17	0.004680851
17.01667	0.004680851
17.03333	0.004680851
17.05	0.004680851
17.06667	0.004680851
17.08333	0.004680851
17.1	0.004680851
17.11667	0.004680851
17.13333	0.004680851
17.15	0.004680851
17.16667	0.004680851
17.18333	0.004680851
17.2	0.004680851
17.21667	0.004680851
17.23333	0.004680851
17.25	0.004680851
17.26667	0.004680851
17.28333	0.004680851
17.3	0.004680851
17.31667	0.004680851
17.33333	0
17.35	0
17.36667	0
17.38333	0.004680851
17.4	0
17.41667	0.004680851
17.43333	0
17.45	0
17.46667	0
17.48333	0
17.5	0.004680851
17.51667	0.004680851
17.53333	0
17.55	0
17.56667	0.004680851
17.58333	0
17.6	0
17.61667	0
17.63333	0
17.65	0
17.66667	0.004680851
17.68333	0.004680851
17.7	0.004680851
17.71667	0.004680851
17.73333	0
17.75	0
17.76667	0
17.78333	0
17.8	0
17.81667	0
17.83333	0
17.85	0
17.86667	0
17.88333	0.004680851
17.9	0.004680851
17.91667	0.004680851
17.93333	0.004680851
17.95	0
17.96667	0
17.98333	0
18	0.004680851
18.01667	0.004680851
18.03333	0.004680851
18.05	0.004680851
18.06667	0.004680851
18.08333	0.004680851
18.1	0.004680851
18.11667	0.004680851
18.13333	0.004680851
18.15	0.004680851
18.16667	0.004680851
18.18333	0.004680851
18.2	0.004680851
18.21667	0.004680851
18.23333	0.004680851
18.25	0.004680851
18.26667	0.004680851
18.28333	0.004680851
18.3	0.004680851
18.31667	0.004680851
18.33333	0.004680851
18.35	0.004680851
18.36667	0.004680851
18.38333	0.004680851
18.4	0.004680851
18.41667	0.004680851
18.43333	0.004680851
18.45	0.004680851
18.46667	0.004680851
18.48333	0.004680851
18.5	0.004680851
18.51667	0.004680851
18.53333	0.004680851
18.55	0.004680851
18.56667	0.004680851
18.58333	0.004680851
18.6	0.004680851
18.61667	0.004680851
18.63333	0.004680851
18.65	0.004680851
18.66667	0.004680851
18.68333	0.004680851
18.7	0.004680851
18.71667	0.004680851
18.73333	0.004680851
18.75	0.004680851
18.76667	0.004680851
18.78333	0.004680851
18.8	0.004680851
18.81667	0.004680851
18.83333	0.004680851
18.85	0.004680851
18.86667	0.004680851
18.88333	0.004680851
18.9	0.004680851
18.91667	0.004680851
18.93333	0.004680851
18.95	0.004680851
18.96667	0.004680851
18.98333	0.004680851
19	0.004680851
19.01667	0.004680851
19.03333	0.004680851
19.05	0.004680851
19.06667	0.004680851
19.08333	0.004680851
19.1	0.004680851
19.11667	0.004680851
19.13333	0.004680851
19.15	0.004680851
19.16667	0.004680851
19.18333	0.004680851
19.2	0.004680851
19.21667	0.004680851
19.23333	0.004680851
19.25	0.004680851
19.26667	0.004680851
19.28333	0.004680851
19.3	0.004680851
19.31667	0.004680851
19.33333	0.004680851
19.35	0.004680851
19.36667	0.004680851
19.38333	0.004680851
19.4	0.004680851
19.41667	0.004680851
19.43333	0.004680851
19.45	0.004680851
19.46667	0.004680851
19.48333	0
19.5	0
19.51667	0.004680851
19.53333	0
19.55	0
19.56667	0
19.58333	0
19.6	0
19.61667	0
19.63333	0
19.65	0
19.66667	0
19.68333	0
19.7	0
19.71667	0
19.73333	0
19.75	0
19.76667	-0.004680851
19.78333	-0.004680851
19.8	-0.004680851
19.81667	-0.004680851
19.83333	-0.004680851
19.85	-0.004680851
19.86667	-0.004680851
19.88333	-0.004680851
19.9	-0.004680851
19.91667	-0.004680851
19.93333	-0.004680851
19.95	-0.004680851
19.96667	-0.004680851
19.98333	-0.004680851
20	-0.004680851
