"Sample Set Id"	1752
"Sample Set Name"	"sad100124HPA"
"System Name"	"System III"
"Instrument Method Name"	"System 3_RI"
"SampleName"	"pHPA7"
"Injection"	1
"Vial"	"10"
"Channel"	"410 "
0.01666667	-0.009361702
0.03333333	-0.004680851
0.05	0
0.06666667	0
0.08333333	0
0.1	0
0.1166667	0
0.1333333	0
0.15	0
0.1666667	0
0.1833333	0
0.2	0
0.2166667	0
0.2333333	0
0.25	0
0.2666667	0
0.2833333	0
0.3	0
0.3166667	0.004680851
0.3333333	0.004680851
0.35	0.004680851
0.3666667	0.004680851
0.3833333	0.004680851
0.4	0.004680851
0.4166667	0.004680851
0.4333333	0.004680851
0.45	0.004680851
0.4666667	0.004680851
0.4833333	0.004680851
0.5	0.009361702
0.5166667	0.009361702
0.5333333	0.009361702
0.55	0.009361702
0.5666667	0.009361702
0.5833333	0.009361702
0.6	0.009361702
0.6166667	0.009361702
0.6333333	0.009361702
0.65	0.009361702
0.6666667	0.009361702
0.6833333	0.009361702
0.7	0.009361702
0.7166667	0.009361702
0.7333333	0.009361702
0.75	0.009361702
0.7666667	0.009361702
0.7833333	0.009361702
0.8	0.01404255
0.8166667	0.01404255
0.8333333	0.009361702
0.85	0.01404255
0.8666667	0.01404255
0.8833333	0.01404255
0.9	0.01404255
0.9166667	0.01404255
0.9333333	0.01404255
0.95	0.01404255
0.9666667	0.01404255
0.9833333	0.01404255
1	0.01404255
1.016667	0.01404255
1.033333	0.01404255
1.05	0.01404255
1.066667	0.01404255
1.083333	0.01404255
1.1	0.01404255
1.116667	0.01404255
1.133333	0.01404255
1.15	0.01404255
1.166667	0.01404255
1.183333	0.01404255
1.2	0.01404255
1.216667	0.01404255
1.233333	0.01404255
1.25	0.01404255
1.266667	0.01404255
1.283333	0.01404255
1.3	0.01404255
1.316667	0.01404255
1.333333	0.01404255
1.35	0.01404255
1.366667	0.01404255
1.383333	0.01404255
1.4	0.01404255
1.416667	0.01404255
1.433333	0.01404255
1.45	0.01404255
1.466667	0.01404255
1.483333	0.01404255
1.5	0.01404255
1.516667	0.01404255
1.533333	0.01404255
1.55	0.01404255
1.566667	0.01404255
1.583333	0.01404255
1.6	0.01404255
1.616667	0.01404255
1.633333	0.01404255
1.65	0.01404255
1.666667	0.01404255
1.683333	0.01404255
1.7	0.01404255
1.716667	0.01404255
1.733333	0.01404255
1.75	0.01404255
1.766667	0.01404255
1.783333	0.01404255
1.8	0.01404255
1.816667	0.009361702
1.833333	0.009361702
1.85	0.009361702
1.866667	0.009361702
1.883333	0.009361702
1.9	0.009361702
1.916667	0.009361702
1.933333	0.009361702
1.95	0.009361702
1.966667	0.009361702
1.983333	0.009361702
2	0.009361702
2.016667	0.009361702
2.033333	0.009361702
2.05	0.009361702
2.066667	0.009361702
2.083333	0.009361702
2.1	0.009361702
2.116667	0.009361702
2.133333	0.009361702
2.15	0.009361702
2.166667	0.009361702
2.183333	0.009361702
2.2	0.009361702
2.216667	0.009361702
2.233333	0.009361702
2.25	0.009361702
2.266667	0.009361702
2.283333	0.009361702
2.3	0.009361702
2.316667	0.009361702
2.333333	0.009361702
2.35	0.009361702
2.366667	0.009361702
2.383333	0.009361702
2.4	0.009361702
2.416667	0.009361702
2.433333	0.009361702
2.45	0.009361702
2.466667	0.009361702
2.483333	0.009361702
2.5	0.009361702
2.516667	0.009361702
2.533333	0.009361702
2.55	0.009361702
2.566667	0.009361702
2.583333	0.009361702
2.6	0.009361702
2.616667	0.009361702
2.633333	0.009361702
2.65	0.009361702
2.666667	0.009361702
2.683333	0.009361702
2.7	0.009361702
2.716667	0.009361702
2.733333	0.009361702
2.75	0.009361702
2.766667	0.009361702
2.783333	0.009361702
2.8	0.009361702
2.816667	0.009361702
2.833333	0.009361702
2.85	0.009361702
2.866667	0.004680851
2.883333	0.004680851
2.9	0.009361702
2.916667	0.009361702
2.933333	0.004680851
2.95	0.004680851
2.966667	0.009361702
2.983333	0.009361702
3	0.009361702
3.016667	0.004680851
3.033333	0.004680851
3.05	0.004680851
3.066667	0.004680851
3.083333	0.004680851
3.1	0.004680851
3.116667	0.004680851
3.133333	0.004680851
3.15	0.004680851
3.166667	0.004680851
3.183333	0.004680851
3.2	0.009361702
3.216667	0.004680851
3.233333	0.004680851
3.25	0.004680851
3.266667	0.004680851
3.283333	0.004680851
3.3	0.004680851
3.316667	0.004680851
3.333333	0.004680851
3.35	0.004680851
3.366667	0.004680851
3.383333	0.004680851
3.4	0.004680851
3.416667	0.004680851
3.433333	0.004680851
3.45	0.004680851
3.466667	0.004680851
3.483333	0.004680851
3.5	0.004680851
3.516667	0.004680851
3.533333	0.004680851
3.55	0.004680851
3.566667	0.004680851
3.583333	0.004680851
3.6	0.004680851
3.616667	0.004680851
3.633333	0.004680851
3.65	0.004680851
3.666667	0.004680851
3.683333	0.004680851
3.7	0.004680851
3.716667	0.004680851
3.733333	0.004680851
3.75	0.004680851
3.766667	0.004680851
3.783333	0.004680851
3.8	0.004680851
3.816667	0
3.833333	0
3.85	0
3.866667	0
3.883333	0
3.9	0
3.916667	0
3.933333	0
3.95	0
3.966667	0
3.983333	0
4	0.004680851
4.016667	0
4.033333	0
4.05	0
4.066667	0
4.083333	0
4.1	0
4.116667	0
4.133333	0
4.15	0
4.166667	0
4.183333	0
4.2	0
4.216667	0
4.233333	0
4.25	0
4.266667	0
4.283333	0
4.3	0
4.316667	0
4.333333	0
4.35	0
4.366667	0
4.383333	0
4.4	0
4.416667	0
4.433333	0
4.45	0
4.466667	0
4.483333	0
4.5	0
4.516667	0
4.533333	0
4.55	0
4.566667	0
4.583333	0
4.6	0.004680851
4.616667	0.004680851
4.633333	0
4.65	0
4.666667	0
4.683333	0.004680851
4.7	0.004680851
4.716667	0.004680851
4.733333	0
4.75	0
4.766667	0
4.783333	0.004680851
4.8	0.004680851
4.816667	0.004680851
4.833333	0
4.85	0
4.866667	0.004680851
4.883333	0.004680851
4.9	0.004680851
4.916667	0.004680851
4.933333	0.004680851
4.95	0.004680851
4.966667	0.004680851
4.983333	0.004680851
5	0.004680851
5.016667	0.004680851
5.033333	0.004680851
5.05	0.004680851
5.066667	0.004680851
5.083333	0.004680851
5.1	0.004680851
5.116667	0.004680851
5.133333	0.004680851
5.15	0.004680851
5.166667	0.004680851
5.183333	0.004680851
5.2	0.004680851
5.216667	0.004680851
5.233333	0.004680851
5.25	0.004680851
5.266667	0.004680851
5.283333	0.004680851
5.3	0.004680851
5.316667	0.004680851
5.333333	0.004680851
5.35	0.004680851
5.366667	0.004680851
5.383333	0.004680851
5.4	0.004680851
5.416667	0.004680851
5.433333	0.004680851
5.45	0.004680851
5.466667	0.004680851
5.483333	0.004680851
5.5	0.004680851
5.516667	0.004680851
5.533333	0.004680851
5.55	0.004680851
5.566667	0.004680851
5.583333	0.004680851
5.6	0.004680851
5.616667	0.004680851
5.633333	0.004680851
5.65	0.004680851
5.666667	0.004680851
5.683333	0.004680851
5.7	0.004680851
5.716667	0.004680851
5.733333	0.004680851
5.75	0.004680851
5.766667	0.004680851
5.783333	0.004680851
5.8	0.009361702
5.816667	0.009361702
5.833333	0.004680851
5.85	0.004680851
5.866667	0.004680851
5.883333	0.004680851
5.9	0.009361702
5.916667	0.009361702
5.933333	0.009361702
5.95	0.009361702
5.966667	0.009361702
5.983333	0.009361702
6	0.009361702
6.016667	0.009361702
6.033333	0.004680851
6.05	0.004680851
6.066667	0.004680851
6.083333	0.004680851
6.1	0.004680851
6.116667	0.004680851
6.133333	0.004680851
6.15	0.004680851
6.166667	0.004680851
6.183333	0.004680851
6.2	0.004680851
6.216667	0.004680851
6.233333	0.004680851
6.25	0.004680851
6.266667	0.004680851
6.283333	0.004680851
6.3	0.004680851
6.316667	0.004680851
6.333333	0.004680851
6.35	0.004680851
6.366667	0.004680851
6.383333	0.004680851
6.4	0.004680851
6.416667	0.004680851
6.433333	0.004680851
6.45	0.004680851
6.466667	0.004680851
6.483333	0.004680851
6.5	0.004680851
6.516667	0.004680851
6.533333	0.009361702
6.55	0.009361702
6.566667	0.009361702
6.583333	0.009361702
6.6	0.01404255
6.616667	0.01404255
6.633333	0.01404255
6.65	0.0187234
6.666667	0.0187234
6.683333	0.02340426
6.7	0.02808511
6.716667	0.03276596
6.733333	0.03744681
6.75	0.04212766
6.766667	0.05148936
6.783333	0.06085106
6.8	0.06553191
6.816667	0.07489362
6.833333	0.07957447
6.85	0.08893617
6.866667	0.09829787
6.883333	0.1029787
6.9	0.1076596
6.916667	0.1170213
6.933333	0.1217021
6.95	0.126383
6.966667	0.1310638
6.983333	0.1357447
7	0.1404255
7.016667	0.1451064
7.033333	0.1497872
7.05	0.1591489
7.066667	0.1685106
7.083333	0.1778723
7.1	0.187234
7.116667	0.2012766
7.133333	0.2153191
7.15	0.2293617
7.166667	0.2480851
7.183333	0.2714894
7.2	0.2902128
7.216667	0.313617
7.233333	0.3370213
7.25	0.3604255
7.266667	0.3885106
7.283333	0.4165957
7.3	0.4446808
7.316667	0.472766
7.333333	0.5055319
7.35	0.533617
7.366667	0.5710638
7.383333	0.6085106
7.4	0.6506383
7.416667	0.6974468
7.433333	0.7489362
7.45	0.8144681
7.466667	0.8846808
7.483333	0.9642553
7.5	1.053191
7.516667	1.151489
7.533333	1.259149
7.55	1.371489
7.566667	1.497872
7.583333	1.628936
7.6	1.76
7.616667	1.891064
7.633333	2.022128
7.65	2.14383
7.666667	2.265532
7.683333	2.373191
7.7	2.471489
7.716667	2.555745
7.733333	2.625957
7.75	2.677447
7.766667	2.714894
7.783333	2.733617
7.8	2.738298
7.816667	2.728936
7.833333	2.700851
7.85	2.663404
7.866667	2.611915
7.883333	2.555745
7.9	2.490213
7.916667	2.415319
7.933333	2.335745
7.95	2.25617
7.966667	2.171915
7.983333	2.08766
8	2.008085
8.016667	1.92383
8.033333	1.839574
8.05	1.76
8.066667	1.680426
8.083333	1.605532
8.1	1.530638
8.116667	1.460426
8.133333	1.390213
8.15	1.324681
8.166667	1.259149
8.183333	1.198298
8.2	1.137447
8.216667	1.081277
8.233333	1.020426
8.25	0.9689362
8.266667	0.9174468
8.283333	0.8659574
8.3	0.8191489
8.316667	0.7723404
8.333333	0.7255319
8.35	0.6787234
8.366667	0.6365957
8.383333	0.5991489
8.4	0.5617021
8.416667	0.5242553
8.433333	0.4868085
8.45	0.4587234
8.466667	0.4306383
8.483333	0.4025532
8.5	0.3791489
8.516667	0.3557447
8.533333	0.3370213
8.55	0.3182979
8.566667	0.3042553
8.583333	0.2948936
8.6	0.2808511
8.616667	0.2714894
8.633333	0.2621277
8.65	0.2574468
8.666667	0.252766
8.683333	0.2480851
8.7	0.2434043
8.716667	0.2387234
8.733333	0.2387234
8.75	0.2340426
8.766667	0.2340426
8.783333	0.2293617
8.8	0.2293617
8.816667	0.2246808
8.833333	0.2246808
8.85	0.22
8.866667	0.22
8.883333	0.2153191
8.9	0.2153191
8.916667	0.2106383
8.933333	0.2106383
8.95	0.2106383
8.966667	0.2059574
8.983333	0.2059574
9	0.2059574
9.016667	0.2012766
9.033333	0.2012766
9.05	0.2012766
9.066667	0.1965957
9.083333	0.1965957
9.1	0.1965957
9.116667	0.1965957
9.133333	0.1965957
9.15	0.1965957
9.166667	0.1965957
9.183333	0.1965957
9.2	0.1965957
9.216667	0.1965957
9.233333	0.1965957
9.25	0.2012766
9.266667	0.2012766
9.283333	0.2012766
9.3	0.2059574
9.316667	0.2059574
9.333333	0.2059574
9.35	0.2106383
9.366667	0.2106383
9.383333	0.2106383
9.4	0.2153191
9.416667	0.2153191
9.433333	0.2153191
9.45	0.2153191
9.466667	0.2153191
9.483333	0.2153191
9.5	0.2106383
9.516667	0.2059574
9.533333	0.2012766
9.55	0.1965957
9.566667	0.1919149
9.583333	0.1825532
9.6	0.1685106
9.616667	0.1404255
9.633333	0.1029787
9.65	0.04212766
9.666667	-0.04212766
9.683333	-0.1638298
9.7	-0.3229787
9.716667	-0.5242553
9.733333	-0.7582979
9.75	-1.025106
9.766667	-1.310638
9.783333	-1.59617
9.8	-1.877021
9.816667	-2.129787
9.833333	-2.349787
9.85	-2.52766
9.866667	-2.654043
9.883333	-2.733617
9.9	-2.761702
9.916667	-2.742979
9.933333	-2.686808
9.95	-2.597872
9.966667	-2.480851
9.983333	-2.349787
10	-2.204681
10.01667	-2.064255
10.03333	-1.928511
10.05	-1.802128
10.06667	-1.685106
10.08333	-1.582128
10.1	-1.493191
10.11667	-1.422979
10.13333	-1.357447
10.15	-1.301277
10.16667	-1.254468
10.18333	-1.21234
10.2	-1.174894
10.21667	-1.142128
10.23333	-1.109362
10.25	-1.076596
10.26667	-1.048511
10.28333	-1.015745
10.3	-0.9829787
10.31667	-0.9502128
10.33333	-0.9221276
10.35	-0.8893617
10.36667	-0.8565957
10.38333	-0.8285106
10.4	-0.7957447
10.41667	-0.7676596
10.43333	-0.7395745
10.45	-0.7068085
10.46667	-0.6787234
10.48333	-0.6412766
10.5	-0.6038298
10.51667	-0.566383
10.53333	-0.5242553
10.55	-0.472766
10.56667	-0.4212766
10.58333	-0.3557447
10.6	-0.2855319
10.61667	-0.2059574
10.63333	-0.1123404
10.65	-0.01404255
10.66667	0.09829787
10.68333	0.22
10.7	0.346383
10.71667	0.472766
10.73333	0.5991489
10.75	0.7208511
10.76667	0.8285106
10.78333	0.9268085
10.8	1.011064
10.81667	1.076596
10.83333	1.123404
10.85	1.151489
10.86667	1.160851
10.88333	1.160851
10.9	1.142128
10.91667	1.114043
10.93333	1.071915
10.95	1.025106
10.96667	0.9689362
10.98333	0.9034042
11	0.8331915
11.01667	0.7582979
11.03333	0.6787234
11.05	0.5944681
11.06667	0.5102128
11.08333	0.4259574
11.1	0.346383
11.11667	0.2668085
11.13333	0.1919149
11.15	0.1217021
11.16667	0.06085106
11.18333	0.009361702
11.2	-0.03276596
11.21667	-0.06553191
11.23333	-0.08893617
11.25	-0.1076596
11.26667	-0.1123404
11.28333	-0.1123404
11.3	-0.1076596
11.31667	-0.09829787
11.33333	-0.08893617
11.35	-0.07021277
11.36667	-0.05617021
11.38333	-0.03744681
11.4	-0.02340426
11.41667	-0.009361702
11.43333	0.004680851
11.45	0.01404255
11.46667	0.0187234
11.48333	0.02340426
11.5	0.02808511
11.51667	0.02340426
11.53333	0.0187234
11.55	0.009361702
11.56667	0
11.58333	-0.0187234
11.6	-0.04212766
11.61667	-0.07021277
11.63333	-0.1076596
11.65	-0.1497872
11.66667	-0.2012766
11.68333	-0.2621277
11.7	-0.3323404
11.71667	-0.4119149
11.73333	-0.5008511
11.75	-0.5897872
11.76667	-0.6787234
11.78333	-0.7723404
11.8	-0.8565957
11.81667	-0.9361702
11.83333	-1.006383
11.85	-1.062553
11.86667	-1.104681
11.88333	-1.132766
11.9	-1.146808
11.91667	-1.146808
11.93333	-1.137447
11.95	-1.114043
11.96667	-1.085957
11.98333	-1.048511
12	-1.006383
12.01667	-0.9642553
12.03333	-0.9221276
12.05	-0.8753191
12.06667	-0.8331915
12.08333	-0.7910638
12.1	-0.753617
12.11667	-0.7208511
12.13333	-0.6927659
12.15	-0.6693617
12.16667	-0.6506383
12.18333	-0.6365957
12.2	-0.627234
12.21667	-0.627234
12.23333	-0.627234
12.25	-0.6319149
12.26667	-0.6412766
12.28333	-0.6459574
12.3	-0.6553191
12.31667	-0.6646808
12.33333	-0.6693617
12.35	-0.6693617
12.36667	-0.6693617
12.38333	-0.6693617
12.4	-0.6646808
12.41667	-0.6553191
12.43333	-0.6412766
12.45	-0.627234
12.46667	-0.6085106
12.48333	-0.5851064
12.5	-0.5617021
12.51667	-0.5382979
12.53333	-0.5148936
12.55	-0.4914894
12.56667	-0.4680851
12.58333	-0.4446808
12.6	-0.4165957
12.61667	-0.3931915
12.63333	-0.3744681
12.65	-0.3557447
12.66667	-0.3323404
12.68333	-0.313617
12.7	-0.2948936
12.71667	-0.2761702
12.73333	-0.2621277
12.75	-0.2434043
12.76667	-0.2293617
12.78333	-0.2153191
12.8	-0.2012766
12.81667	-0.1919149
12.83333	-0.1825532
12.85	-0.1685106
12.86667	-0.1638298
12.88333	-0.1544681
12.9	-0.1451064
12.91667	-0.1357447
12.93333	-0.1310638
12.95	-0.1217021
12.96667	-0.1170213
12.98333	-0.1123404
13	-0.1029787
13.01667	-0.09829787
13.03333	-0.09361702
13.05	-0.08893617
13.06667	-0.08425532
13.08333	-0.07957447
13.1	-0.07489362
13.11667	-0.07021277
13.13333	-0.06553191
13.15	-0.06553191
13.16667	-0.06085106
13.18333	-0.05617021
13.2	-0.05148936
13.21667	-0.04680851
13.23333	-0.04680851
13.25	-0.04680851
13.26667	-0.04212766
13.28333	-0.04212766
13.3	-0.03744681
13.31667	-0.03744681
13.33333	-0.03744681
13.35	-0.03276596
13.36667	-0.03276596
13.38333	-0.03276596
13.4	-0.03276596
13.41667	-0.03276596
13.43333	-0.03276596
13.45	-0.03276596
13.46667	-0.03276596
13.48333	-0.03276596
13.5	-0.03276596
13.51667	-0.03276596
13.53333	-0.03744681
13.55	-0.03744681
13.56667	-0.03744681
13.58333	-0.03744681
13.6	-0.03744681
13.61667	-0.03744681
13.63333	-0.04212766
13.65	-0.04212766
13.66667	-0.04212766
13.68333	-0.04212766
13.7	-0.04212766
13.71667	-0.04212766
13.73333	-0.04212766
13.75	-0.04680851
13.76667	-0.04680851
13.78333	-0.04680851
13.8	-0.04680851
13.81667	-0.04680851
13.83333	-0.04680851
13.85	-0.05148936
13.86667	-0.05148936
13.88333	-0.05148936
13.9	-0.05148936
13.91667	-0.05148936
13.93333	-0.05148936
13.95	-0.05148936
13.96667	-0.05148936
13.98333	-0.05148936
14	-0.05148936
14.01667	-0.05617021
14.03333	-0.05617021
14.05	-0.05617021
14.06667	-0.05617021
14.08333	-0.05617021
14.1	-0.05617021
14.11667	-0.05617021
14.13333	-0.05617021
14.15	-0.06085106
14.16667	-0.06085106
14.18333	-0.06085106
14.2	-0.06085106
14.21667	-0.06085106
14.23333	-0.06085106
14.25	-0.06085106
14.26667	-0.06085106
14.28333	-0.06085106
14.3	-0.06085106
14.31667	-0.06085106
14.33333	-0.06085106
14.35	-0.06553191
14.36667	-0.06085106
14.38333	-0.06085106
14.4	-0.06085106
14.41667	-0.06085106
14.43333	-0.06553191
14.45	-0.06553191
14.46667	-0.06553191
14.48333	-0.06553191
14.5	-0.06085106
14.51667	-0.06085106
14.53333	-0.06085106
14.55	-0.06085106
14.56667	-0.06085106
14.58333	-0.06085106
14.6	-0.06085106
14.61667	-0.06085106
14.63333	-0.06085106
14.65	-0.06085106
14.66667	-0.06085106
14.68333	-0.06085106
14.7	-0.05617021
14.71667	-0.05617021
14.73333	-0.05617021
14.75	-0.05617021
14.76667	-0.05617021
14.78333	-0.05148936
14.8	-0.05148936
14.81667	-0.05148936
14.83333	-0.05148936
14.85	-0.05148936
14.86667	-0.05148936
14.88333	-0.05148936
14.9	-0.04680851
14.91667	-0.04680851
14.93333	-0.04680851
14.95	-0.04680851
14.96667	-0.04680851
14.98333	-0.04680851
15	-0.04212766
15.01667	-0.04212766
15.03333	-0.04212766
15.05	-0.04212766
15.06667	-0.04212766
15.08333	-0.04212766
15.1	-0.04212766
15.11667	-0.03744681
15.13333	-0.03744681
15.15	-0.03744681
15.16667	-0.03744681
15.18333	-0.03744681
15.2	-0.03744681
15.21667	-0.03276596
15.23333	-0.03276596
15.25	-0.03276596
15.26667	-0.03276596
15.28333	-0.03276596
15.3	-0.03276596
15.31667	-0.03276596
15.33333	-0.03276596
15.35	-0.02808511
15.36667	-0.02808511
15.38333	-0.02808511
15.4	-0.02808511
15.41667	-0.02808511
15.43333	-0.02808511
15.45	-0.02808511
15.46667	-0.02808511
15.48333	-0.02808511
15.5	-0.02808511
15.51667	-0.02340426
15.53333	-0.02340426
15.55	-0.02340426
15.56667	-0.02340426
15.58333	-0.02340426
15.6	-0.02340426
15.61667	-0.02340426
15.63333	-0.02340426
15.65	-0.02340426
15.66667	-0.02340426
15.68333	-0.02340426
15.7	-0.02340426
15.71667	-0.02340426
15.73333	-0.02340426
15.75	-0.02340426
15.76667	-0.0187234
15.78333	-0.0187234
15.8	-0.0187234
15.81667	-0.0187234
15.83333	-0.02340426
15.85	-0.02340426
15.86667	-0.0187234
15.88333	-0.0187234
15.9	-0.0187234
15.91667	-0.0187234
15.93333	-0.0187234
15.95	-0.0187234
15.96667	-0.0187234
15.98333	-0.0187234
16	-0.0187234
16.01667	-0.0187234
16.03333	-0.0187234
16.05	-0.0187234
16.06667	-0.0187234
16.08333	-0.0187234
16.1	-0.0187234
16.11667	-0.0187234
16.13333	-0.0187234
16.15	-0.0187234
16.16667	-0.0187234
16.18333	-0.0187234
16.2	-0.0187234
16.21667	-0.0187234
16.23333	-0.0187234
16.25	-0.0187234
16.26667	-0.0187234
16.28333	-0.0187234
16.3	-0.0187234
16.31667	-0.0187234
16.33333	-0.0187234
16.35	-0.0187234
16.36667	-0.0187234
16.38333	-0.0187234
16.4	-0.0187234
16.41667	-0.0187234
16.43333	-0.0187234
16.45	-0.0187234
16.46667	-0.0187234
16.48333	-0.0187234
16.5	-0.0187234
16.51667	-0.0187234
16.53333	-0.0187234
16.55	-0.0187234
16.56667	-0.0187234
16.58333	-0.0187234
16.6	-0.0187234
16.61667	-0.0187234
16.63333	-0.0187234
16.65	-0.0187234
16.66667	-0.0187234
16.68333	-0.0187234
16.7	-0.0187234
16.71667	-0.0187234
16.73333	-0.0187234
16.75	-0.0187234
16.76667	-0.0187234
16.78333	-0.0187234
16.8	-0.0187234
16.81667	-0.0187234
16.83333	-0.0187234
16.85	-0.0187234
16.86667	-0.0187234
16.88333	-0.0187234
16.9	-0.0187234
16.91667	-0.0187234
16.93333	-0.0187234
16.95	-0.0187234
16.96667	-0.0187234
16.98333	-0.0187234
17	-0.0187234
17.01667	-0.0187234
17.03333	-0.0187234
17.05	-0.0187234
17.06667	-0.0187234
17.08333	-0.0187234
17.1	-0.0187234
17.11667	-0.0187234
17.13333	-0.0187234
17.15	-0.0187234
17.16667	-0.0187234
17.18333	-0.0187234
17.2	-0.0187234
17.21667	-0.0187234
17.23333	-0.0187234
17.25	-0.0187234
17.26667	-0.0187234
17.28333	-0.0187234
17.3	-0.0187234
17.31667	-0.0187234
17.33333	-0.0187234
17.35	-0.0187234
17.36667	-0.0187234
17.38333	-0.0187234
17.4	-0.0187234
17.41667	-0.0187234
17.43333	-0.0187234
17.45	-0.0187234
17.46667	-0.0187234
17.48333	-0.0187234
17.5	-0.0187234
17.51667	-0.0187234
17.53333	-0.0187234
17.55	-0.0187234
17.56667	-0.0187234
17.58333	-0.0187234
17.6	-0.0187234
17.61667	-0.0187234
17.63333	-0.0187234
17.65	-0.0187234
17.66667	-0.0187234
17.68333	-0.0187234
17.7	-0.0187234
17.71667	-0.0187234
17.73333	-0.0187234
17.75	-0.0187234
17.76667	-0.0187234
17.78333	-0.0187234
17.8	-0.0187234
17.81667	-0.0187234
17.83333	-0.0187234
17.85	-0.0187234
17.86667	-0.0187234
17.88333	-0.0187234
17.9	-0.0187234
17.91667	-0.0187234
17.93333	-0.0187234
17.95	-0.0187234
17.96667	-0.0187234
17.98333	-0.0187234
18	-0.0187234
18.01667	-0.0187234
18.03333	-0.0187234
18.05	-0.0187234
18.06667	-0.0187234
18.08333	-0.0187234
18.1	-0.0187234
18.11667	-0.0187234
18.13333	-0.0187234
18.15	-0.0187234
18.16667	-0.0187234
18.18333	-0.0187234
18.2	-0.0187234
18.21667	-0.0187234
18.23333	-0.0187234
18.25	-0.0187234
18.26667	-0.0187234
18.28333	-0.0187234
18.3	-0.0187234
18.31667	-0.0187234
18.33333	-0.0187234
18.35	-0.0187234
18.36667	-0.0187234
18.38333	-0.0187234
18.4	-0.0187234
18.41667	-0.0187234
18.43333	-0.0187234
18.45	-0.0187234
18.46667	-0.0187234
18.48333	-0.0187234
18.5	-0.01404255
18.51667	-0.01404255
18.53333	-0.0187234
18.55	-0.0187234
18.56667	-0.0187234
18.58333	-0.0187234
18.6	-0.01404255
18.61667	-0.01404255
18.63333	-0.0187234
18.65	-0.0187234
18.66667	-0.0187234
18.68333	-0.0187234
18.7	-0.01404255
18.71667	-0.01404255
18.73333	-0.01404255
18.75	-0.01404255
18.76667	-0.01404255
18.78333	-0.01404255
18.8	-0.01404255
18.81667	-0.01404255
18.83333	-0.01404255
18.85	-0.01404255
18.86667	-0.01404255
18.88333	-0.01404255
18.9	-0.01404255
18.91667	-0.01404255
18.93333	-0.01404255
18.95	-0.01404255
18.96667	-0.01404255
18.98333	-0.01404255
19	-0.01404255
19.01667	-0.01404255
19.03333	-0.01404255
19.05	-0.01404255
19.06667	-0.01404255
19.08333	-0.01404255
19.1	-0.01404255
19.11667	-0.01404255
19.13333	-0.01404255
19.15	-0.01404255
19.16667	-0.01404255
19.18333	-0.01404255
19.2	-0.01404255
19.21667	-0.01404255
19.23333	-0.01404255
19.25	-0.01404255
19.26667	-0.01404255
19.28333	-0.01404255
19.3	-0.01404255
19.31667	-0.01404255
19.33333	-0.01404255
19.35	-0.01404255
19.36667	-0.01404255
19.38333	-0.01404255
19.4	-0.009361702
19.41667	-0.009361702
19.43333	-0.01404255
19.45	-0.01404255
19.46667	-0.01404255
19.48333	-0.009361702
19.5	-0.009361702
19.51667	-0.009361702
19.53333	-0.009361702
19.55	-0.009361702
19.56667	-0.009361702
19.58333	-0.009361702
19.6	-0.009361702
19.61667	-0.009361702
19.63333	-0.009361702
19.65	-0.009361702
19.66667	-0.009361702
19.68333	-0.009361702
19.7	-0.009361702
19.71667	-0.009361702
19.73333	-0.009361702
19.75	-0.009361702
19.76667	-0.009361702
19.78333	-0.009361702
19.8	-0.009361702
19.81667	-0.009361702
19.83333	-0.009361702
19.85	-0.009361702
19.86667	-0.009361702
19.88333	-0.009361702
19.9	-0.009361702
19.91667	-0.009361702
19.93333	-0.009361702
19.95	-0.009361702
19.96667	-0.009361702
19.98333	-0.009361702
20	-0.009361702
