"Sample Set Id"	1752
"Sample Set Name"	"sad100124HPA"
"System Name"	"System III"
"Instrument Method Name"	"System 3_RI"
"SampleName"	"HPAbHEA1"
"Injection"	1
"Vial"	"12"
"Channel"	"410 "
0.01666667	-0.01404255
0.03333333	-0.004680851
0.05	0
0.06666667	0
0.08333333	0
0.1	0
0.1166667	0
0.1333333	0
0.15	0
0.1666667	0
0.1833333	0
0.2	0
0.2166667	0
0.2333333	0
0.25	0
0.2666667	0
0.2833333	0
0.3	0.004680851
0.3166667	0
0.3333333	0
0.35	0
0.3666667	0.004680851
0.3833333	0.004680851
0.4	0.004680851
0.4166667	0.004680851
0.4333333	0.004680851
0.45	0.004680851
0.4666667	0.004680851
0.4833333	0.004680851
0.5	0.004680851
0.5166667	0.004680851
0.5333333	0.004680851
0.55	0.004680851
0.5666667	0.004680851
0.5833333	0.009361702
0.6	0.009361702
0.6166667	0.009361702
0.6333333	0.009361702
0.65	0.009361702
0.6666667	0.009361702
0.6833333	0.009361702
0.7	0.009361702
0.7166667	0.009361702
0.7333333	0.009361702
0.75	0.009361702
0.7666667	0.009361702
0.7833333	0.009361702
0.8	0.009361702
0.8166667	0.009361702
0.8333333	0.009361702
0.85	0.009361702
0.8666667	0.009361702
0.8833333	0.009361702
0.9	0.009361702
0.9166667	0.009361702
0.9333333	0.009361702
0.95	0.009361702
0.9666667	0.009361702
0.9833333	0.009361702
1	0.009361702
1.016667	0.009361702
1.033333	0.009361702
1.05	0.009361702
1.066667	0.009361702
1.083333	0.009361702
1.1	0.009361702
1.116667	0.009361702
1.133333	0.009361702
1.15	0.009361702
1.166667	0.009361702
1.183333	0.009361702
1.2	0.009361702
1.216667	0.009361702
1.233333	0.009361702
1.25	0.009361702
1.266667	0.009361702
1.283333	0.009361702
1.3	0.009361702
1.316667	0.009361702
1.333333	0.009361702
1.35	0.009361702
1.366667	0.009361702
1.383333	0.009361702
1.4	0.009361702
1.416667	0.009361702
1.433333	0.009361702
1.45	0.009361702
1.466667	0.009361702
1.483333	0.009361702
1.5	0.009361702
1.516667	0.009361702
1.533333	0.009361702
1.55	0.009361702
1.566667	0.004680851
1.583333	0.004680851
1.6	0.009361702
1.616667	0.004680851
1.633333	0.004680851
1.65	0.004680851
1.666667	0.004680851
1.683333	0.009361702
1.7	0.009361702
1.716667	0.004680851
1.733333	0.004680851
1.75	0.004680851
1.766667	0.004680851
1.783333	0.004680851
1.8	0.004680851
1.816667	0.004680851
1.833333	0.004680851
1.85	0.004680851
1.866667	0.004680851
1.883333	0.004680851
1.9	0.004680851
1.916667	0.004680851
1.933333	0.004680851
1.95	0.004680851
1.966667	0.004680851
1.983333	0.004680851
2	0.004680851
2.016667	0.004680851
2.033333	0.004680851
2.05	0.004680851
2.066667	0.004680851
2.083333	0.004680851
2.1	0.004680851
2.116667	0.004680851
2.133333	0.004680851
2.15	0.004680851
2.166667	0.004680851
2.183333	0.004680851
2.2	0.004680851
2.216667	0.004680851
2.233333	0.004680851
2.25	0.004680851
2.266667	0.004680851
2.283333	0.009361702
2.3	0.009361702
2.316667	0.004680851
2.333333	0.004680851
2.35	0.004680851
2.366667	0.004680851
2.383333	0.004680851
2.4	0.004680851
2.416667	0.004680851
2.433333	0.004680851
2.45	0.004680851
2.466667	0.004680851
2.483333	0.004680851
2.5	0.004680851
2.516667	0.004680851
2.533333	0.004680851
2.55	0.004680851
2.566667	0.004680851
2.583333	0.004680851
2.6	0.004680851
2.616667	0.004680851
2.633333	0.004680851
2.65	0.004680851
2.666667	0.004680851
2.683333	0.004680851
2.7	0.004680851
2.716667	0.004680851
2.733333	0.004680851
2.75	0.004680851
2.766667	0.004680851
2.783333	0.004680851
2.8	0.004680851
2.816667	0.004680851
2.833333	0.004680851
2.85	0.004680851
2.866667	0.004680851
2.883333	0.004680851
2.9	0.004680851
2.916667	0.004680851
2.933333	0.004680851
2.95	0.004680851
2.966667	0.004680851
2.983333	0.004680851
3	0.004680851
3.016667	0.004680851
3.033333	0.004680851
3.05	0.004680851
3.066667	0.004680851
3.083333	0.004680851
3.1	0.004680851
3.116667	0.004680851
3.133333	0.004680851
3.15	0.004680851
3.166667	0.004680851
3.183333	0.004680851
3.2	0.004680851
3.216667	0.004680851
3.233333	0.004680851
3.25	0.004680851
3.266667	0.004680851
3.283333	0.004680851
3.3	0.004680851
3.316667	0.004680851
3.333333	0.004680851
3.35	0.004680851
3.366667	0.004680851
3.383333	0.004680851
3.4	0.004680851
3.416667	0.004680851
3.433333	0.004680851
3.45	0.004680851
3.466667	0.004680851
3.483333	0.004680851
3.5	0.004680851
3.516667	0.004680851
3.533333	0.004680851
3.55	0.004680851
3.566667	0.004680851
3.583333	0.004680851
3.6	0.004680851
3.616667	0.004680851
3.633333	0.004680851
3.65	0.004680851
3.666667	0.004680851
3.683333	0.004680851
3.7	0.004680851
3.716667	0.004680851
3.733333	0.004680851
3.75	0.004680851
3.766667	0.004680851
3.783333	0.004680851
3.8	0.004680851
3.816667	0.004680851
3.833333	0.004680851
3.85	0.004680851
3.866667	0.004680851
3.883333	0.004680851
3.9	0.004680851
3.916667	0.004680851
3.933333	0.004680851
3.95	0.004680851
3.966667	0.004680851
3.983333	0.004680851
4	0.004680851
4.016667	0.004680851
4.033333	0.004680851
4.05	0.004680851
4.066667	0.004680851
4.083333	0.004680851
4.1	0.004680851
4.116667	0.004680851
4.133333	0.004680851
4.15	0
4.166667	0
4.183333	0
4.2	0
4.216667	0
4.233333	0
4.25	0
4.266667	0
4.283333	0.004680851
4.3	0.004680851
4.316667	0
4.333333	0
4.35	0
4.366667	0
4.383333	0
4.4	0.004680851
4.416667	0
4.433333	0
4.45	0
4.466667	0
4.483333	0.004680851
4.5	0.004680851
4.516667	0
4.533333	0
4.55	0
4.566667	0
4.583333	0
4.6	0
4.616667	0
4.633333	0
4.65	0
4.666667	0
4.683333	0
4.7	0.004680851
4.716667	0
4.733333	0
4.75	0
4.766667	0
4.783333	0
4.8	0
4.816667	0
4.833333	0
4.85	0
4.866667	0
4.883333	0
4.9	0
4.916667	0
4.933333	0
4.95	0
4.966667	0
4.983333	0
5	0
5.016667	0
5.033333	0
5.05	0
5.066667	0
5.083333	0
5.1	0
5.116667	0
5.133333	0
5.15	-0.004680851
5.166667	-0.004680851
5.183333	0
5.2	-0.004680851
5.216667	-0.004680851
5.233333	-0.004680851
5.25	0
5.266667	0
5.283333	0
5.3	0
5.316667	0
5.333333	0
5.35	0
5.366667	-0.004680851
5.383333	-0.004680851
5.4	-0.004680851
5.416667	-0.004680851
5.433333	-0.004680851
5.45	-0.004680851
5.466667	-0.004680851
5.483333	0
5.5	0
5.516667	-0.004680851
5.533333	-0.004680851
5.55	-0.004680851
5.566667	-0.004680851
5.583333	-0.004680851
5.6	-0.004680851
5.616667	-0.004680851
5.633333	-0.004680851
5.65	-0.004680851
5.666667	-0.004680851
5.683333	-0.004680851
5.7	-0.004680851
5.716667	-0.004680851
5.733333	-0.004680851
5.75	-0.004680851
5.766667	-0.004680851
5.783333	-0.004680851
5.8	-0.004680851
5.816667	-0.004680851
5.833333	-0.004680851
5.85	-0.004680851
5.866667	-0.004680851
5.883333	-0.004680851
5.9	-0.004680851
5.916667	-0.004680851
5.933333	-0.004680851
5.95	-0.004680851
5.966667	-0.004680851
5.983333	-0.004680851
6	-0.004680851
6.016667	-0.004680851
6.033333	-0.004680851
6.05	-0.009361702
6.066667	-0.009361702
6.083333	-0.004680851
6.1	-0.009361702
6.116667	-0.009361702
6.133333	-0.009361702
6.15	-0.009361702
6.166667	-0.009361702
6.183333	-0.009361702
6.2	-0.009361702
6.216667	-0.009361702
6.233333	-0.009361702
6.25	-0.009361702
6.266667	-0.009361702
6.283333	-0.009361702
6.3	-0.009361702
6.316667	-0.009361702
6.333333	-0.009361702
6.35	-0.009361702
6.366667	-0.009361702
6.383333	-0.009361702
6.4	-0.009361702
6.416667	-0.009361702
6.433333	-0.009361702
6.45	-0.004680851
6.466667	-0.004680851
6.483333	-0.004680851
6.5	0
6.516667	0
6.533333	0
6.55	0.004680851
6.566667	0.004680851
6.583333	0.009361702
6.6	0.01404255
6.616667	0.0187234
6.633333	0.02340426
6.65	0.02808511
6.666667	0.03744681
6.683333	0.04680851
6.7	0.05148936
6.716667	0.06085106
6.733333	0.07021277
6.75	0.08425532
6.766667	0.09829787
6.783333	0.1076596
6.8	0.1217021
6.816667	0.1310638
6.833333	0.1451064
6.85	0.1544681
6.866667	0.1685106
6.883333	0.1778723
6.9	0.187234
6.916667	0.1965957
6.933333	0.2059574
6.95	0.2153191
6.966667	0.2293617
6.983333	0.2434043
7	0.252766
7.016667	0.2668085
7.033333	0.2855319
7.05	0.3042553
7.066667	0.3229787
7.083333	0.346383
7.1	0.3697872
7.116667	0.3978723
7.133333	0.4212766
7.15	0.4493617
7.166667	0.4774468
7.183333	0.5055319
7.2	0.533617
7.216667	0.5617021
7.233333	0.5897872
7.25	0.6178723
7.266667	0.6459574
7.283333	0.6787234
7.3	0.7114894
7.316667	0.7489362
7.333333	0.7957447
7.35	0.847234
7.366667	0.9127659
7.383333	0.9876596
7.4	1.071915
7.416667	1.165532
7.433333	1.273191
7.45	1.394894
7.466667	1.521277
7.483333	1.657021
7.5	1.792766
7.516667	1.92383
7.533333	2.059574
7.55	2.185957
7.566667	2.302979
7.583333	2.405957
7.6	2.494894
7.616667	2.569787
7.633333	2.625957
7.65	2.663404
7.666667	2.686808
7.683333	2.686808
7.7	2.677447
7.716667	2.649362
7.733333	2.611915
7.75	2.560426
7.766667	2.499574
7.783333	2.434043
7.8	2.36383
7.816667	2.284255
7.833333	2.204681
7.85	2.125106
7.866667	2.040851
7.883333	1.961277
7.9	1.881702
7.916667	1.802128
7.933333	1.727234
7.95	1.65234
7.966667	1.577447
7.983333	1.507234
8	1.441702
8.016667	1.371489
8.033333	1.310638
8.05	1.245106
8.066667	1.188936
8.083333	1.128085
8.1	1.071915
8.116667	1.020426
8.133333	0.9689362
8.15	0.9174468
8.166667	0.8706383
8.183333	0.8238298
8.2	0.7817021
8.216667	0.7348936
8.233333	0.6974468
8.25	0.66
8.266667	0.6225532
8.283333	0.5897872
8.3	0.5570213
8.316667	0.5242553
8.333333	0.4961702
8.35	0.4680851
8.366667	0.44
8.383333	0.4165957
8.4	0.3931915
8.416667	0.3697872
8.433333	0.3510638
8.45	0.3323404
8.466667	0.313617
8.483333	0.2995745
8.5	0.2855319
8.516667	0.2761702
8.533333	0.2621277
8.55	0.252766
8.566667	0.2480851
8.583333	0.2387234
8.6	0.2340426
8.616667	0.2293617
8.633333	0.2246808
8.65	0.2246808
8.666667	0.22
8.683333	0.22
8.7	0.2153191
8.716667	0.2106383
8.733333	0.2106383
8.75	0.2106383
8.766667	0.2059574
8.783333	0.2059574
8.8	0.2059574
8.816667	0.2012766
8.833333	0.2012766
8.85	0.1965957
8.866667	0.1965957
8.883333	0.1965957
8.9	0.1919149
8.916667	0.1919149
8.933333	0.1919149
8.95	0.187234
8.966667	0.187234
8.983333	0.187234
9	0.187234
9.016667	0.187234
9.033333	0.187234
9.05	0.187234
9.066667	0.187234
9.083333	0.187234
9.1	0.1919149
9.116667	0.1919149
9.133333	0.1919149
9.15	0.1919149
9.166667	0.1919149
9.183333	0.1965957
9.2	0.1965957
9.216667	0.2012766
9.233333	0.2012766
9.25	0.2059574
9.266667	0.2059574
9.283333	0.2059574
9.3	0.2106383
9.316667	0.2106383
9.333333	0.2106383
9.35	0.2106383
9.366667	0.2059574
9.383333	0.2059574
9.4	0.2059574
9.416667	0.2012766
9.433333	0.1965957
9.45	0.1919149
9.466667	0.187234
9.483333	0.1825532
9.5	0.1778723
9.516667	0.1685106
9.533333	0.1638298
9.55	0.1544681
9.566667	0.1451064
9.583333	0.1357447
9.6	0.1170213
9.616667	0.09361702
9.633333	0.05617021
9.65	-0.004680851
9.666667	-0.08893617
9.683333	-0.2059574
9.7	-0.3604255
9.716667	-0.5570213
9.733333	-0.786383
9.75	-1.048511
9.766667	-1.329362
9.783333	-1.619574
9.8	-1.900426
9.816667	-2.167234
9.833333	-2.401277
9.85	-2.602553
9.866667	-2.757021
9.883333	-2.869362
9.9	-2.939574
9.916667	-2.96766
9.933333	-2.96766
9.95	-2.939574
9.966667	-2.892766
9.983333	-2.827234
10	-2.75234
10.01667	-2.677447
10.03333	-2.593191
10.05	-2.508936
10.06667	-2.429362
10.08333	-2.345106
10.1	-2.265532
10.11667	-2.185957
10.13333	-2.106383
10.15	-2.031489
10.16667	-1.951915
10.18333	-1.881702
10.2	-1.806808
10.21667	-1.736596
10.23333	-1.671064
10.25	-1.605532
10.26667	-1.544681
10.28333	-1.48383
10.3	-1.42766
10.31667	-1.371489
10.33333	-1.32
10.35	-1.268511
10.36667	-1.217021
10.38333	-1.165532
10.4	-1.118723
10.41667	-1.076596
10.43333	-1.029787
10.45	-0.9876596
10.46667	-0.9455319
10.48333	-0.8987234
10.5	-0.8519149
10.51667	-0.8051064
10.53333	-0.753617
10.55	-0.6974468
10.56667	-0.6319149
10.58333	-0.5617021
10.6	-0.4868085
10.61667	-0.3978723
10.63333	-0.3042553
10.65	-0.2012766
10.66667	-0.08425532
10.68333	0.03744681
10.7	0.1638298
10.71667	0.2902128
10.73333	0.4119149
10.75	0.5289362
10.76667	0.6365957
10.78333	0.7302128
10.8	0.8144681
10.81667	0.8753191
10.83333	0.9268085
10.85	0.9548936
10.86667	0.9689362
10.88333	0.9689362
10.9	0.9595745
10.91667	0.9314894
10.93333	0.8987234
10.95	0.8565957
10.96667	0.8051064
10.98333	0.7489362
11	0.6880851
11.01667	0.6178723
11.03333	0.5476596
11.05	0.472766
11.06667	0.3978723
11.08333	0.3229787
11.1	0.2480851
11.11667	0.1778723
11.13333	0.1076596
11.15	0.05148936
11.16667	-0.004680851
11.18333	-0.05148936
11.2	-0.08893617
11.21667	-0.1170213
11.23333	-0.1404255
11.25	-0.1544681
11.26667	-0.1591489
11.28333	-0.1591489
11.3	-0.1544681
11.31667	-0.1451064
11.33333	-0.1357447
11.35	-0.1217021
11.36667	-0.1076596
11.38333	-0.08893617
11.4	-0.07489362
11.41667	-0.06085106
11.43333	-0.05148936
11.45	-0.04212766
11.46667	-0.03276596
11.48333	-0.02808511
11.5	-0.02808511
11.51667	-0.03276596
11.53333	-0.03744681
11.55	-0.04212766
11.56667	-0.05617021
11.58333	-0.07489362
11.6	-0.09361702
11.61667	-0.1217021
11.63333	-0.1591489
11.65	-0.2059574
11.66667	-0.2574468
11.68333	-0.3182979
11.7	-0.3885106
11.71667	-0.4680851
11.73333	-0.5570213
11.75	-0.6459574
11.76667	-0.7348936
11.78333	-0.8285106
11.8	-0.9127659
11.81667	-0.9923404
11.83333	-1.057872
11.85	-1.114043
11.86667	-1.15617
11.88333	-1.179574
11.9	-1.193617
11.91667	-1.193617
11.93333	-1.184255
11.95	-1.160851
11.96667	-1.128085
11.98333	-1.090638
12	-1.053191
12.01667	-1.011064
12.03333	-0.9642553
12.05	-0.9221276
12.06667	-0.88
12.08333	-0.8425532
12.1	-0.8051064
12.11667	-0.7723404
12.13333	-0.7489362
12.15	-0.7255319
12.16667	-0.7114894
12.18333	-0.6974468
12.2	-0.6927659
12.21667	-0.6880851
12.23333	-0.6927659
12.25	-0.6974468
12.26667	-0.7068085
12.28333	-0.7114894
12.3	-0.7208511
12.31667	-0.7302128
12.33333	-0.7348936
12.35	-0.7348936
12.36667	-0.7348936
12.38333	-0.7302128
12.4	-0.7255319
12.41667	-0.7114894
12.43333	-0.7021277
12.45	-0.6834042
12.46667	-0.6646808
12.48333	-0.6412766
12.5	-0.6178723
12.51667	-0.5944681
12.53333	-0.566383
12.55	-0.5429787
12.56667	-0.5195745
12.58333	-0.4914894
12.6	-0.4680851
12.61667	-0.4446808
12.63333	-0.4212766
12.65	-0.3978723
12.66667	-0.3744681
12.68333	-0.3557447
12.7	-0.3370213
12.71667	-0.3182979
12.73333	-0.2995745
12.75	-0.2855319
12.76667	-0.2714894
12.78333	-0.252766
12.8	-0.2387234
12.81667	-0.2293617
12.83333	-0.2153191
12.85	-0.2059574
12.86667	-0.1965957
12.88333	-0.187234
12.9	-0.1778723
12.91667	-0.1685106
12.93333	-0.1638298
12.95	-0.1544681
12.96667	-0.1497872
12.98333	-0.1404255
13	-0.1357447
13.01667	-0.1310638
13.03333	-0.126383
13.05	-0.1217021
13.06667	-0.1170213
13.08333	-0.1076596
13.1	-0.1029787
13.11667	-0.09829787
13.13333	-0.09829787
13.15	-0.09361702
13.16667	-0.08893617
13.18333	-0.08425532
13.2	-0.07957447
13.21667	-0.07957447
13.23333	-0.07489362
13.25	-0.07021277
13.26667	-0.07021277
13.28333	-0.06553191
13.3	-0.06553191
13.31667	-0.06085106
13.33333	-0.06085106
13.35	-0.06085106
13.36667	-0.06085106
13.38333	-0.06085106
13.4	-0.05617021
13.41667	-0.05617021
13.43333	-0.05617021
13.45	-0.05617021
13.46667	-0.05617021
13.48333	-0.05617021
13.5	-0.05617021
13.51667	-0.05617021
13.53333	-0.05617021
13.55	-0.05617021
13.56667	-0.05617021
13.58333	-0.05617021
13.6	-0.05617021
13.61667	-0.06085106
13.63333	-0.06085106
13.65	-0.06085106
13.66667	-0.06085106
13.68333	-0.06085106
13.7	-0.06085106
13.71667	-0.06085106
13.73333	-0.06085106
13.75	-0.06553191
13.76667	-0.06553191
13.78333	-0.06553191
13.8	-0.06553191
13.81667	-0.06553191
13.83333	-0.06553191
13.85	-0.06553191
13.86667	-0.06553191
13.88333	-0.06553191
13.9	-0.06553191
13.91667	-0.06553191
13.93333	-0.07021277
13.95	-0.07021277
13.96667	-0.07021277
13.98333	-0.07021277
14	-0.07021277
14.01667	-0.07021277
14.03333	-0.07021277
14.05	-0.07021277
14.06667	-0.07021277
14.08333	-0.07021277
14.1	-0.07021277
14.11667	-0.07489362
14.13333	-0.07489362
14.15	-0.07489362
14.16667	-0.07489362
14.18333	-0.07489362
14.2	-0.07489362
14.21667	-0.07489362
14.23333	-0.07489362
14.25	-0.07489362
14.26667	-0.07489362
14.28333	-0.07489362
14.3	-0.07489362
14.31667	-0.07489362
14.33333	-0.07489362
14.35	-0.07489362
14.36667	-0.07489362
14.38333	-0.07489362
14.4	-0.07489362
14.41667	-0.07489362
14.43333	-0.07489362
14.45	-0.07489362
14.46667	-0.07489362
14.48333	-0.07489362
14.5	-0.07021277
14.51667	-0.07489362
14.53333	-0.07489362
14.55	-0.07021277
14.56667	-0.07021277
14.58333	-0.07021277
14.6	-0.07021277
14.61667	-0.07021277
14.63333	-0.07021277
14.65	-0.07021277
14.66667	-0.06553191
14.68333	-0.06553191
14.7	-0.06553191
14.71667	-0.06553191
14.73333	-0.06553191
14.75	-0.06553191
14.76667	-0.06085106
14.78333	-0.06085106
14.8	-0.06085106
14.81667	-0.06085106
14.83333	-0.06085106
14.85	-0.06085106
14.86667	-0.05617021
14.88333	-0.05617021
14.9	-0.05617021
14.91667	-0.05617021
14.93333	-0.05617021
14.95	-0.05617021
14.96667	-0.05148936
14.98333	-0.05148936
15	-0.05148936
15.01667	-0.05148936
15.03333	-0.05148936
15.05	-0.05148936
15.06667	-0.04680851
15.08333	-0.04680851
15.1	-0.04680851
15.11667	-0.04680851
15.13333	-0.04680851
15.15	-0.04680851
15.16667	-0.04212766
15.18333	-0.04212766
15.2	-0.04212766
15.21667	-0.04212766
15.23333	-0.03744681
15.25	-0.03744681
15.26667	-0.03744681
15.28333	-0.03744681
15.3	-0.03744681
15.31667	-0.03744681
15.33333	-0.03276596
15.35	-0.03276596
15.36667	-0.03276596
15.38333	-0.03276596
15.4	-0.03276596
15.41667	-0.03276596
15.43333	-0.03276596
15.45	-0.03276596
15.46667	-0.02808511
15.48333	-0.02808511
15.5	-0.02808511
15.51667	-0.02808511
15.53333	-0.02808511
15.55	-0.02808511
15.56667	-0.02808511
15.58333	-0.02808511
15.6	-0.02340426
15.61667	-0.02340426
15.63333	-0.02340426
15.65	-0.02340426
15.66667	-0.02340426
15.68333	-0.02340426
15.7	-0.02340426
15.71667	-0.02340426
15.73333	-0.02340426
15.75	-0.02340426
15.76667	-0.02340426
15.78333	-0.02340426
15.8	-0.0187234
15.81667	-0.0187234
15.83333	-0.0187234
15.85	-0.0187234
15.86667	-0.0187234
15.88333	-0.0187234
15.9	-0.0187234
15.91667	-0.0187234
15.93333	-0.0187234
15.95	-0.0187234
15.96667	-0.0187234
15.98333	-0.0187234
16	-0.0187234
16.01667	-0.0187234
16.03333	-0.0187234
16.05	-0.0187234
16.06667	-0.0187234
16.08333	-0.0187234
16.1	-0.0187234
16.11667	-0.0187234
16.13333	-0.0187234
16.15	-0.0187234
16.16667	-0.0187234
16.18333	-0.0187234
16.2	-0.01404255
16.21667	-0.0187234
16.23333	-0.0187234
16.25	-0.0187234
16.26667	-0.01404255
16.28333	-0.01404255
16.3	-0.01404255
16.31667	-0.0187234
16.33333	-0.0187234
16.35	-0.0187234
16.36667	-0.0187234
16.38333	-0.01404255
16.4	-0.0187234
16.41667	-0.0187234
16.43333	-0.0187234
16.45	-0.01404255
16.46667	-0.01404255
16.48333	-0.01404255
16.5	-0.01404255
16.51667	-0.0187234
16.53333	-0.0187234
16.55	-0.01404255
16.56667	-0.01404255
16.58333	-0.0187234
16.6	-0.01404255
16.61667	-0.01404255
16.63333	-0.0187234
16.65	-0.0187234
16.66667	-0.0187234
16.68333	-0.01404255
16.7	-0.01404255
16.71667	-0.0187234
16.73333	-0.0187234
16.75	-0.0187234
16.76667	-0.0187234
16.78333	-0.0187234
16.8	-0.0187234
16.81667	-0.0187234
16.83333	-0.0187234
16.85	-0.0187234
16.86667	-0.0187234
16.88333	-0.0187234
16.9	-0.0187234
16.91667	-0.0187234
16.93333	-0.0187234
16.95	-0.0187234
16.96667	-0.0187234
16.98333	-0.0187234
17	-0.0187234
17.01667	-0.0187234
17.03333	-0.0187234
17.05	-0.0187234
17.06667	-0.0187234
17.08333	-0.0187234
17.1	-0.0187234
17.11667	-0.0187234
17.13333	-0.0187234
17.15	-0.0187234
17.16667	-0.0187234
17.18333	-0.0187234
17.2	-0.0187234
17.21667	-0.0187234
17.23333	-0.0187234
17.25	-0.0187234
17.26667	-0.0187234
17.28333	-0.0187234
17.3	-0.0187234
17.31667	-0.0187234
17.33333	-0.0187234
17.35	-0.0187234
17.36667	-0.02340426
17.38333	-0.02340426
17.4	-0.0187234
17.41667	-0.02340426
17.43333	-0.02340426
17.45	-0.0187234
17.46667	-0.0187234
17.48333	-0.0187234
17.5	-0.0187234
17.51667	-0.02340426
17.53333	-0.02340426
17.55	-0.0187234
17.56667	-0.02340426
17.58333	-0.0187234
17.6	-0.0187234
17.61667	-0.02340426
17.63333	-0.02340426
17.65	-0.0187234
17.66667	-0.0187234
17.68333	-0.0187234
17.7	-0.0187234
17.71667	-0.02340426
17.73333	-0.02340426
17.75	-0.02340426
17.76667	-0.02340426
17.78333	-0.02340426
17.8	-0.02340426
17.81667	-0.02340426
17.83333	-0.02340426
17.85	-0.02340426
17.86667	-0.02340426
17.88333	-0.02340426
17.9	-0.0187234
17.91667	-0.02340426
17.93333	-0.02340426
17.95	-0.02340426
17.96667	-0.02340426
17.98333	-0.02340426
18	-0.02340426
18.01667	-0.02340426
18.03333	-0.02340426
18.05	-0.02340426
18.06667	-0.02340426
18.08333	-0.02340426
18.1	-0.02340426
18.11667	-0.02340426
18.13333	-0.02340426
18.15	-0.02340426
18.16667	-0.02340426
18.18333	-0.02340426
18.2	-0.02340426
18.21667	-0.02340426
18.23333	-0.02340426
18.25	-0.02340426
18.26667	-0.02340426
18.28333	-0.02340426
18.3	-0.02340426
18.31667	-0.02340426
18.33333	-0.02340426
18.35	-0.02340426
18.36667	-0.02340426
18.38333	-0.02340426
18.4	-0.02340426
18.41667	-0.02340426
18.43333	-0.02340426
18.45	-0.02340426
18.46667	-0.02340426
18.48333	-0.02340426
18.5	-0.02340426
18.51667	-0.02340426
18.53333	-0.02340426
18.55	-0.02340426
18.56667	-0.02340426
18.58333	-0.02340426
18.6	-0.02340426
18.61667	-0.02340426
18.63333	-0.02340426
18.65	-0.02340426
18.66667	-0.02340426
18.68333	-0.02340426
18.7	-0.02340426
18.71667	-0.02340426
18.73333	-0.02340426
18.75	-0.02340426
18.76667	-0.02340426
18.78333	-0.02340426
18.8	-0.02340426
18.81667	-0.02340426
18.83333	-0.02340426
18.85	-0.02340426
18.86667	-0.02340426
18.88333	-0.02340426
18.9	-0.02340426
18.91667	-0.02340426
18.93333	-0.02340426
18.95	-0.02340426
18.96667	-0.02340426
18.98333	-0.02340426
19	-0.02340426
19.01667	-0.02340426
19.03333	-0.02340426
19.05	-0.02340426
19.06667	-0.02340426
19.08333	-0.02340426
19.1	-0.02340426
19.11667	-0.02340426
19.13333	-0.02340426
19.15	-0.02340426
19.16667	-0.02340426
19.18333	-0.02340426
19.2	-0.02340426
19.21667	-0.02340426
19.23333	-0.02340426
19.25	-0.02340426
19.26667	-0.02340426
19.28333	-0.02340426
19.3	-0.02340426
19.31667	-0.02340426
19.33333	-0.02340426
19.35	-0.02340426
19.36667	-0.02340426
19.38333	-0.02340426
19.4	-0.02340426
19.41667	-0.02340426
19.43333	-0.02340426
19.45	-0.02340426
19.46667	-0.02340426
19.48333	-0.02340426
19.5	-0.02340426
19.51667	-0.02340426
19.53333	-0.02340426
19.55	-0.02340426
19.56667	-0.02340426
19.58333	-0.02340426
19.6	-0.02340426
19.61667	-0.02340426
19.63333	-0.02340426
19.65	-0.02340426
19.66667	-0.02340426
19.68333	-0.02340426
19.7	-0.02340426
19.71667	-0.02340426
19.73333	-0.02340426
19.75	-0.02340426
19.76667	-0.02340426
19.78333	-0.02340426
19.8	-0.02340426
19.81667	-0.02340426
19.83333	-0.02340426
19.85	-0.02340426
19.86667	-0.02340426
19.88333	-0.02340426
19.9	-0.0187234
19.91667	-0.02340426
19.93333	-0.02340426
19.95	-0.02340426
19.96667	-0.02340426
19.98333	-0.02340426
20	-0.02340426
