"Sample Set Id"	1752
"Sample Set Name"	"sad100124HPA"
"System Name"	"System III"
"Instrument Method Name"	"System 3_RI"
"SampleName"	"pHPA6"
"Injection"	1
"Vial"	"11"
"Channel"	"410 "
0.01666667	-0.009361702
0.03333333	-0.004680851
0.05	0
0.06666667	0
0.08333333	0
0.1	0
0.1166667	0
0.1333333	0
0.15	0
0.1666667	0
0.1833333	0
0.2	0
0.2166667	0
0.2333333	0
0.25	0.004680851
0.2666667	0.004680851
0.2833333	0.004680851
0.3	0.004680851
0.3166667	0.004680851
0.3333333	0.004680851
0.35	0.004680851
0.3666667	0.004680851
0.3833333	0.004680851
0.4	0.004680851
0.4166667	0.004680851
0.4333333	0.004680851
0.45	0.004680851
0.4666667	0.009361702
0.4833333	0.009361702
0.5	0.009361702
0.5166667	0.009361702
0.5333333	0.009361702
0.55	0.009361702
0.5666667	0.009361702
0.5833333	0.009361702
0.6	0.009361702
0.6166667	0.009361702
0.6333333	0.009361702
0.65	0.009361702
0.6666667	0.009361702
0.6833333	0.009361702
0.7	0.009361702
0.7166667	0.009361702
0.7333333	0.009361702
0.75	0.009361702
0.7666667	0.009361702
0.7833333	0.009361702
0.8	0.009361702
0.8166667	0.009361702
0.8333333	0.009361702
0.85	0.009361702
0.8666667	0.009361702
0.8833333	0.009361702
0.9	0.009361702
0.9166667	0.009361702
0.9333333	0.009361702
0.95	0.009361702
0.9666667	0.009361702
0.9833333	0.009361702
1	0.009361702
1.016667	0.009361702
1.033333	0.009361702
1.05	0.009361702
1.066667	0.009361702
1.083333	0.009361702
1.1	0.009361702
1.116667	0.009361702
1.133333	0.009361702
1.15	0.009361702
1.166667	0.009361702
1.183333	0.009361702
1.2	0.009361702
1.216667	0.009361702
1.233333	0.009361702
1.25	0.009361702
1.266667	0.004680851
1.283333	0.004680851
1.3	0.004680851
1.316667	0.004680851
1.333333	0.004680851
1.35	0.009361702
1.366667	0.004680851
1.383333	0.004680851
1.4	0.004680851
1.416667	0.004680851
1.433333	0.004680851
1.45	0.004680851
1.466667	0.004680851
1.483333	0.004680851
1.5	0.004680851
1.516667	0.004680851
1.533333	0.004680851
1.55	0.004680851
1.566667	0.004680851
1.583333	0.004680851
1.6	0.004680851
1.616667	0.004680851
1.633333	0.004680851
1.65	0.004680851
1.666667	0.004680851
1.683333	0.004680851
1.7	0.004680851
1.716667	0.004680851
1.733333	0.004680851
1.75	0.004680851
1.766667	0.004680851
1.783333	0.004680851
1.8	0.004680851
1.816667	0.004680851
1.833333	0.004680851
1.85	0.004680851
1.866667	0.004680851
1.883333	0.004680851
1.9	0.004680851
1.916667	0.004680851
1.933333	0.004680851
1.95	0.004680851
1.966667	0.004680851
1.983333	0.004680851
2	0.004680851
2.016667	0.004680851
2.033333	0.004680851
2.05	0.004680851
2.066667	0.004680851
2.083333	0.004680851
2.1	0.004680851
2.116667	0.004680851
2.133333	0.004680851
2.15	0.004680851
2.166667	0.004680851
2.183333	0.004680851
2.2	0.004680851
2.216667	0.004680851
2.233333	0.004680851
2.25	0.004680851
2.266667	0.004680851
2.283333	0.004680851
2.3	0.004680851
2.316667	0.004680851
2.333333	0.004680851
2.35	0.004680851
2.366667	0.004680851
2.383333	0.004680851
2.4	0.004680851
2.416667	0.004680851
2.433333	0.004680851
2.45	0.004680851
2.466667	0.004680851
2.483333	0.004680851
2.5	0.004680851
2.516667	0.004680851
2.533333	0.004680851
2.55	0.004680851
2.566667	0.004680851
2.583333	0.004680851
2.6	0.004680851
2.616667	0.004680851
2.633333	0.004680851
2.65	0.004680851
2.666667	0.004680851
2.683333	0.004680851
2.7	0.004680851
2.716667	0.004680851
2.733333	0.004680851
2.75	0.004680851
2.766667	0.004680851
2.783333	0.004680851
2.8	0.004680851
2.816667	0.004680851
2.833333	0.004680851
2.85	0.004680851
2.866667	0.004680851
2.883333	0.004680851
2.9	0.004680851
2.916667	0.004680851
2.933333	0.004680851
2.95	0.009361702
2.966667	0.009361702
2.983333	0.004680851
3	0.004680851
3.016667	0.004680851
3.033333	0.004680851
3.05	0.004680851
3.066667	0.004680851
3.083333	0.004680851
3.1	0.004680851
3.116667	0.004680851
3.133333	0.004680851
3.15	0.009361702
3.166667	0.004680851
3.183333	0.004680851
3.2	0.004680851
3.216667	0.004680851
3.233333	0.004680851
3.25	0.004680851
3.266667	0.004680851
3.283333	0.004680851
3.3	0.004680851
3.316667	0.004680851
3.333333	0.004680851
3.35	0.004680851
3.366667	0.004680851
3.383333	0.004680851
3.4	0.004680851
3.416667	0.004680851
3.433333	0.004680851
3.45	0.004680851
3.466667	0.004680851
3.483333	0.004680851
3.5	0.004680851
3.516667	0.004680851
3.533333	0.004680851
3.55	0.004680851
3.566667	0.004680851
3.583333	0.004680851
3.6	0
3.616667	0
3.633333	0.004680851
3.65	0.004680851
3.666667	0
3.683333	0
3.7	0
3.716667	0
3.733333	0
3.75	0
3.766667	0
3.783333	0
3.8	0
3.816667	0
3.833333	0
3.85	0
3.866667	0
3.883333	0
3.9	0
3.916667	0
3.933333	0
3.95	0
3.966667	0
3.983333	0
4	0
4.016667	0
4.033333	0
4.05	0
4.066667	0
4.083333	0
4.1	0
4.116667	0
4.133333	0
4.15	0
4.166667	0
4.183333	0
4.2	0
4.216667	0
4.233333	0
4.25	0
4.266667	0
4.283333	0
4.3	0
4.316667	0
4.333333	0
4.35	0
4.366667	0
4.383333	0
4.4	0
4.416667	0
4.433333	0
4.45	0
4.466667	0
4.483333	0
4.5	0
4.516667	0
4.533333	0
4.55	0
4.566667	0
4.583333	0
4.6	0
4.616667	0
4.633333	0
4.65	0
4.666667	0
4.683333	0
4.7	0
4.716667	0
4.733333	0
4.75	0
4.766667	0
4.783333	0
4.8	0
4.816667	0
4.833333	0
4.85	0
4.866667	0
4.883333	0
4.9	0
4.916667	0
4.933333	0
4.95	0
4.966667	0
4.983333	0
5	0
5.016667	0
5.033333	0
5.05	0
5.066667	0
5.083333	0
5.1	0
5.116667	0
5.133333	0
5.15	0
5.166667	0
5.183333	0
5.2	0
5.216667	0
5.233333	0
5.25	0
5.266667	0
5.283333	0
5.3	0
5.316667	0
5.333333	0
5.35	0.004680851
5.366667	0.004680851
5.383333	0
5.4	0
5.416667	0
5.433333	0
5.45	0.004680851
5.466667	0.004680851
5.483333	0.004680851
5.5	0.004680851
5.516667	0.004680851
5.533333	0.004680851
5.55	0.004680851
5.566667	0.004680851
5.583333	0.004680851
5.6	0.004680851
5.616667	0.004680851
5.633333	0.004680851
5.65	0.004680851
5.666667	0.004680851
5.683333	0.004680851
5.7	0.004680851
5.716667	0.004680851
5.733333	0.004680851
5.75	0.004680851
5.766667	0.004680851
5.783333	0.004680851
5.8	0.004680851
5.816667	0.004680851
5.833333	0.004680851
5.85	0.004680851
5.866667	0.004680851
5.883333	0.004680851
5.9	0.004680851
5.916667	0.004680851
5.933333	0.004680851
5.95	0.004680851
5.966667	0.004680851
5.983333	0.004680851
6	0.004680851
6.016667	0
6.033333	0
6.05	0
6.066667	0
6.083333	0
6.1	0
6.116667	0
6.133333	0
6.15	0
6.166667	0
6.183333	0
6.2	-0.004680851
6.216667	-0.004680851
6.233333	-0.004680851
6.25	-0.004680851
6.266667	-0.004680851
6.283333	-0.004680851
6.3	-0.004680851
6.316667	-0.004680851
6.333333	-0.004680851
6.35	-0.004680851
6.366667	-0.004680851
6.383333	-0.004680851
6.4	-0.004680851
6.416667	-0.004680851
6.433333	-0.004680851
6.45	-0.004680851
6.466667	-0.004680851
6.483333	-0.004680851
6.5	-0.004680851
6.516667	-0.004680851
6.533333	-0.004680851
6.55	-0.004680851
6.566667	-0.004680851
6.583333	-0.009361702
6.6	-0.009361702
6.616667	-0.009361702
6.633333	-0.009361702
6.65	-0.009361702
6.666667	-0.009361702
6.683333	-0.009361702
6.7	-0.009361702
6.716667	-0.009361702
6.733333	-0.009361702
6.75	-0.009361702
6.766667	-0.009361702
6.783333	-0.009361702
6.8	-0.009361702
6.816667	-0.004680851
6.833333	-0.004680851
6.85	-0.004680851
6.866667	0
6.883333	0
6.9	0.004680851
6.916667	0.004680851
6.933333	0.009361702
6.95	0.01404255
6.966667	0.0187234
6.983333	0.02340426
7	0.02808511
7.016667	0.03276596
7.033333	0.03276596
7.05	0.03744681
7.066667	0.04212766
7.083333	0.04212766
7.1	0.04212766
7.116667	0.04212766
7.133333	0.03744681
7.15	0.03744681
7.166667	0.03744681
7.183333	0.03276596
7.2	0.03276596
7.216667	0.02808511
7.233333	0.02808511
7.25	0.02808511
7.266667	0.02340426
7.283333	0.02340426
7.3	0.02340426
7.316667	0.02340426
7.333333	0.0187234
7.35	0.0187234
7.366667	0.0187234
7.383333	0.0187234
7.4	0.01404255
7.416667	0.01404255
7.433333	0.01404255
7.45	0.01404255
7.466667	0.0187234
7.483333	0.0187234
7.5	0.0187234
7.516667	0.0187234
7.533333	0.0187234
7.55	0.02340426
7.566667	0.02808511
7.583333	0.02808511
7.6	0.03744681
7.616667	0.04212766
7.633333	0.05148936
7.65	0.06085106
7.666667	0.07489362
7.683333	0.08425532
7.7	0.09829787
7.716667	0.1170213
7.733333	0.1357447
7.75	0.1544681
7.766667	0.1778723
7.783333	0.2012766
7.8	0.2246808
7.816667	0.2574468
7.833333	0.2948936
7.85	0.3370213
7.866667	0.3838298
7.883333	0.44
7.9	0.5102128
7.916667	0.5897872
7.933333	0.6787234
7.95	0.786383
7.966667	0.9034042
7.983333	1.034468
8	1.179574
8.016667	1.338723
8.033333	1.507234
8.05	1.685106
8.066667	1.86766
8.083333	2.050213
8.1	2.232766
8.116667	2.410638
8.133333	2.574468
8.15	2.733617
8.166667	2.869362
8.183333	2.986383
8.2	3.084681
8.216667	3.164255
8.233333	3.220425
8.25	3.253191
8.266667	3.267234
8.283333	3.253191
8.3	3.225106
8.316667	3.182979
8.333333	3.122128
8.35	3.047234
8.366667	2.962979
8.383333	2.869362
8.4	2.771064
8.416667	2.663404
8.433333	2.555745
8.45	2.448085
8.466667	2.340426
8.483333	2.232766
8.5	2.125106
8.516667	2.022128
8.533333	1.92383
8.55	1.830213
8.566667	1.736596
8.583333	1.64766
8.6	1.563404
8.616667	1.479149
8.633333	1.404255
8.65	1.329362
8.666667	1.259149
8.683333	1.188936
8.7	1.128085
8.716667	1.062553
8.733333	1.006383
8.75	0.9502128
8.766667	0.8940425
8.783333	0.8425532
8.8	0.7957447
8.816667	0.7489362
8.833333	0.7021277
8.85	0.6646808
8.866667	0.6225532
8.883333	0.5851064
8.9	0.5523404
8.916667	0.5195745
8.933333	0.4868085
8.95	0.4634042
8.966667	0.4353191
8.983333	0.4119149
9	0.3931915
9.016667	0.3744681
9.033333	0.3557447
9.05	0.346383
9.066667	0.3323404
9.083333	0.3182979
9.1	0.3089362
9.116667	0.2995745
9.133333	0.2902128
9.15	0.2855319
9.166667	0.2808511
9.183333	0.2761702
9.2	0.2714894
9.216667	0.2668085
9.233333	0.2668085
9.25	0.2621277
9.266667	0.2574468
9.283333	0.2574468
9.3	0.252766
9.316667	0.252766
9.333333	0.2480851
9.35	0.2480851
9.366667	0.2434043
9.383333	0.2387234
9.4	0.2340426
9.416667	0.2340426
9.433333	0.2293617
9.45	0.2246808
9.466667	0.22
9.483333	0.22
9.5	0.2153191
9.516667	0.2106383
9.533333	0.2059574
9.55	0.2012766
9.566667	0.1965957
9.583333	0.187234
9.6	0.1731915
9.616667	0.1544681
9.633333	0.1170213
9.65	0.06085106
9.666667	-0.02340426
9.683333	-0.1404255
9.7	-0.2902128
9.716667	-0.4868085
9.733333	-0.7161702
9.75	-0.9782979
9.766667	-1.254468
9.783333	-1.535319
9.8	-1.806808
9.816667	-2.054894
9.833333	-2.265532
9.85	-2.434043
9.866667	-2.555745
9.883333	-2.630638
9.9	-2.654043
9.916667	-2.635319
9.933333	-2.574468
9.95	-2.480851
9.966667	-2.36383
9.983333	-2.232766
10	-2.097021
10.01667	-1.951915
10.03333	-1.81617
10.05	-1.689787
10.06667	-1.572766
10.08333	-1.469787
10.1	-1.380851
10.11667	-1.305957
10.13333	-1.235745
10.15	-1.179574
10.16667	-1.128085
10.18333	-1.081277
10.2	-1.039149
10.21667	-1.001702
10.23333	-0.9642553
10.25	-0.9221276
10.26667	-0.8893617
10.28333	-0.8565957
10.3	-0.8191489
10.31667	-0.786383
10.33333	-0.7582979
10.35	-0.7255319
10.36667	-0.6974468
10.38333	-0.6740425
10.4	-0.6459574
10.41667	-0.6225532
10.43333	-0.5991489
10.45	-0.5710638
10.46667	-0.5476596
10.48333	-0.5195745
10.5	-0.4914894
10.51667	-0.4587234
10.53333	-0.4212766
10.55	-0.3744681
10.56667	-0.3276596
10.58333	-0.2761702
10.6	-0.2106383
10.61667	-0.1357447
10.63333	-0.05148936
10.65	0.04212766
10.66667	0.1404255
10.68333	0.2480851
10.7	0.3604255
10.71667	0.472766
10.73333	0.5851064
10.75	0.6927659
10.76667	0.786383
10.78333	0.8753191
10.8	0.9455319
10.81667	0.9970213
10.83333	1.039149
10.85	1.062553
10.86667	1.071915
10.88333	1.067234
10.9	1.048511
10.91667	1.020426
10.93333	0.9829787
10.95	0.9408511
10.96667	0.8893617
10.98333	0.8331915
11	0.7770213
11.01667	0.7161702
11.03333	0.6506383
11.05	0.5897872
11.06667	0.5242553
11.08333	0.4587234
11.1	0.3978723
11.11667	0.3417021
11.13333	0.2855319
11.15	0.2340426
11.16667	0.187234
11.18333	0.1497872
11.2	0.1170213
11.21667	0.08893617
11.23333	0.07021277
11.25	0.05617021
11.26667	0.04680851
11.28333	0.04680851
11.3	0.04680851
11.31667	0.04680851
11.33333	0.05148936
11.35	0.06085106
11.36667	0.07021277
11.38333	0.07957447
11.4	0.08425532
11.41667	0.09361702
11.43333	0.09829787
11.45	0.1029787
11.46667	0.1076596
11.48333	0.1029787
11.5	0.09829787
11.51667	0.09361702
11.53333	0.08425532
11.55	0.07021277
11.56667	0.05617021
11.58333	0.03744681
11.6	0.009361702
11.61667	-0.02340426
11.63333	-0.06085106
11.65	-0.1029787
11.66667	-0.1591489
11.68333	-0.2246808
11.7	-0.2948936
11.71667	-0.3744681
11.73333	-0.4634042
11.75	-0.5523404
11.76667	-0.6506383
11.78333	-0.7442553
11.8	-0.8331915
11.81667	-0.9127659
11.83333	-0.9829787
11.85	-1.04383
11.86667	-1.085957
11.88333	-1.118723
11.9	-1.137447
11.91667	-1.137447
11.93333	-1.128085
11.95	-1.104681
11.96667	-1.076596
11.98333	-1.04383
12	-1.006383
12.01667	-0.9595745
12.03333	-0.9174468
12.05	-0.8753191
12.06667	-0.8331915
12.08333	-0.7910638
12.1	-0.7582979
12.11667	-0.7255319
12.13333	-0.6974468
12.15	-0.6740425
12.16667	-0.6553191
12.18333	-0.6459574
12.2	-0.6365957
12.21667	-0.6365957
12.23333	-0.6365957
12.25	-0.6412766
12.26667	-0.6506383
12.28333	-0.66
12.3	-0.6693617
12.31667	-0.6740425
12.33333	-0.6834042
12.35	-0.6834042
12.36667	-0.6834042
12.38333	-0.6834042
12.4	-0.6787234
12.41667	-0.6693617
12.43333	-0.6553191
12.45	-0.6365957
12.46667	-0.6178723
12.48333	-0.5944681
12.5	-0.5710638
12.51667	-0.5476596
12.53333	-0.5242553
12.55	-0.5008511
12.56667	-0.472766
12.58333	-0.4493617
12.6	-0.4259574
12.61667	-0.4025532
12.63333	-0.3791489
12.65	-0.3604255
12.66667	-0.3417021
12.68333	-0.3182979
12.7	-0.2995745
12.71667	-0.2855319
12.73333	-0.2668085
12.75	-0.252766
12.76667	-0.2340426
12.78333	-0.2246808
12.8	-0.2106383
12.81667	-0.2012766
12.83333	-0.187234
12.85	-0.1778723
12.86667	-0.1685106
12.88333	-0.1638298
12.9	-0.1544681
12.91667	-0.1497872
12.93333	-0.1404255
12.95	-0.1357447
12.96667	-0.126383
12.98333	-0.1217021
13	-0.1170213
13.01667	-0.1123404
13.03333	-0.1076596
13.05	-0.1029787
13.06667	-0.09829787
13.08333	-0.09361702
13.1	-0.08893617
13.11667	-0.08425532
13.13333	-0.08425532
13.15	-0.07957447
13.16667	-0.07489362
13.18333	-0.07021277
13.2	-0.07021277
13.21667	-0.06553191
13.23333	-0.06085106
13.25	-0.06085106
13.26667	-0.05617021
13.28333	-0.05617021
13.3	-0.05617021
13.31667	-0.05148936
13.33333	-0.05148936
13.35	-0.05148936
13.36667	-0.04680851
13.38333	-0.05148936
13.4	-0.05148936
13.41667	-0.04680851
13.43333	-0.04680851
13.45	-0.04680851
13.46667	-0.04680851
13.48333	-0.04680851
13.5	-0.05148936
13.51667	-0.04680851
13.53333	-0.05148936
13.55	-0.05148936
13.56667	-0.05148936
13.58333	-0.05148936
13.6	-0.05148936
13.61667	-0.05148936
13.63333	-0.05148936
13.65	-0.05148936
13.66667	-0.05617021
13.68333	-0.05617021
13.7	-0.05617021
13.71667	-0.05617021
13.73333	-0.05617021
13.75	-0.05617021
13.76667	-0.06085106
13.78333	-0.06085106
13.8	-0.06085106
13.81667	-0.06085106
13.83333	-0.06085106
13.85	-0.06085106
13.86667	-0.06553191
13.88333	-0.06553191
13.9	-0.06553191
13.91667	-0.06553191
13.93333	-0.06553191
13.95	-0.06553191
13.96667	-0.07021277
13.98333	-0.07021277
14	-0.07021277
14.01667	-0.07021277
14.03333	-0.07021277
14.05	-0.07021277
14.06667	-0.07489362
14.08333	-0.07489362
14.1	-0.07489362
14.11667	-0.07489362
14.13333	-0.07489362
14.15	-0.07489362
14.16667	-0.07489362
14.18333	-0.07957447
14.2	-0.07957447
14.21667	-0.07957447
14.23333	-0.07957447
14.25	-0.07957447
14.26667	-0.07957447
14.28333	-0.07957447
14.3	-0.07957447
14.31667	-0.07957447
14.33333	-0.07957447
14.35	-0.07957447
14.36667	-0.07957447
14.38333	-0.07957447
14.4	-0.07957447
14.41667	-0.07957447
14.43333	-0.07957447
14.45	-0.07957447
14.46667	-0.07957447
14.48333	-0.07957447
14.5	-0.07957447
14.51667	-0.07957447
14.53333	-0.07957447
14.55	-0.07957447
14.56667	-0.07957447
14.58333	-0.07957447
14.6	-0.07957447
14.61667	-0.07957447
14.63333	-0.07489362
14.65	-0.07489362
14.66667	-0.07489362
14.68333	-0.07489362
14.7	-0.07489362
14.71667	-0.07489362
14.73333	-0.07021277
14.75	-0.07021277
14.76667	-0.07021277
14.78333	-0.07021277
14.8	-0.07021277
14.81667	-0.06553191
14.83333	-0.06553191
14.85	-0.06553191
14.86667	-0.06553191
14.88333	-0.06553191
14.9	-0.06553191
14.91667	-0.06085106
14.93333	-0.06085106
14.95	-0.06085106
14.96667	-0.06085106
14.98333	-0.06085106
15	-0.05617021
15.01667	-0.05617021
15.03333	-0.05617021
15.05	-0.05617021
15.06667	-0.05148936
15.08333	-0.05148936
15.1	-0.05148936
15.11667	-0.05148936
15.13333	-0.05148936
15.15	-0.05148936
15.16667	-0.04680851
15.18333	-0.04680851
15.2	-0.04680851
15.21667	-0.04680851
15.23333	-0.04680851
15.25	-0.04212766
15.26667	-0.04212766
15.28333	-0.04212766
15.3	-0.04212766
15.31667	-0.04212766
15.33333	-0.03744681
15.35	-0.03744681
15.36667	-0.03744681
15.38333	-0.03744681
15.4	-0.03744681
15.41667	-0.03744681
15.43333	-0.03744681
15.45	-0.03276596
15.46667	-0.03276596
15.48333	-0.03276596
15.5	-0.03276596
15.51667	-0.03276596
15.53333	-0.03276596
15.55	-0.02808511
15.56667	-0.02808511
15.58333	-0.02808511
15.6	-0.02808511
15.61667	-0.02808511
15.63333	-0.02808511
15.65	-0.02808511
15.66667	-0.02340426
15.68333	-0.02340426
15.7	-0.02340426
15.71667	-0.02340426
15.73333	-0.02340426
15.75	-0.02340426
15.76667	-0.02340426
15.78333	-0.02340426
15.8	-0.02340426
15.81667	-0.02340426
15.83333	-0.0187234
15.85	-0.0187234
15.86667	-0.0187234
15.88333	-0.0187234
15.9	-0.0187234
15.91667	-0.0187234
15.93333	-0.0187234
15.95	-0.0187234
15.96667	-0.0187234
15.98333	-0.0187234
16	-0.0187234
16.01667	-0.0187234
16.03333	-0.0187234
16.05	-0.01404255
16.06667	-0.01404255
16.08333	-0.01404255
16.1	-0.01404255
16.11667	-0.01404255
16.13333	-0.01404255
16.15	-0.01404255
16.16667	-0.01404255
16.18333	-0.01404255
16.2	-0.01404255
16.21667	-0.01404255
16.23333	-0.01404255
16.25	-0.01404255
16.26667	-0.009361702
16.28333	-0.01404255
16.3	-0.01404255
16.31667	-0.009361702
16.33333	-0.009361702
16.35	-0.009361702
16.36667	-0.009361702
16.38333	-0.009361702
16.4	-0.009361702
16.41667	-0.009361702
16.43333	-0.009361702
16.45	-0.009361702
16.46667	-0.009361702
16.48333	-0.009361702
16.5	-0.009361702
16.51667	-0.009361702
16.53333	-0.009361702
16.55	-0.009361702
16.56667	-0.009361702
16.58333	-0.009361702
16.6	-0.009361702
16.61667	-0.009361702
16.63333	-0.009361702
16.65	-0.009361702
16.66667	-0.009361702
16.68333	-0.009361702
16.7	-0.009361702
16.71667	-0.009361702
16.73333	-0.009361702
16.75	-0.004680851
16.76667	-0.004680851
16.78333	-0.009361702
16.8	-0.009361702
16.81667	-0.009361702
16.83333	-0.009361702
16.85	-0.009361702
16.86667	-0.009361702
16.88333	-0.009361702
16.9	-0.009361702
16.91667	-0.004680851
16.93333	-0.004680851
16.95	-0.004680851
16.96667	-0.004680851
16.98333	-0.009361702
17	-0.009361702
17.01667	-0.009361702
17.03333	-0.009361702
17.05	-0.004680851
17.06667	-0.004680851
17.08333	-0.004680851
17.1	-0.004680851
17.11667	-0.004680851
17.13333	-0.004680851
17.15	-0.004680851
17.16667	-0.004680851
17.18333	-0.009361702
17.2	-0.009361702
17.21667	-0.009361702
17.23333	-0.009361702
17.25	-0.004680851
17.26667	-0.004680851
17.28333	-0.009361702
17.3	-0.009361702
17.31667	-0.009361702
17.33333	-0.009361702
17.35	-0.004680851
17.36667	-0.009361702
17.38333	-0.009361702
17.4	-0.009361702
17.41667	-0.009361702
17.43333	-0.009361702
17.45	-0.009361702
17.46667	-0.009361702
17.48333	-0.009361702
17.5	-0.009361702
17.51667	-0.009361702
17.53333	-0.009361702
17.55	-0.009361702
17.56667	-0.009361702
17.58333	-0.009361702
17.6	-0.009361702
17.61667	-0.009361702
17.63333	-0.009361702
17.65	-0.009361702
17.66667	-0.009361702
17.68333	-0.009361702
17.7	-0.009361702
17.71667	-0.009361702
17.73333	-0.009361702
17.75	-0.009361702
17.76667	-0.009361702
17.78333	-0.009361702
17.8	-0.009361702
17.81667	-0.009361702
17.83333	-0.009361702
17.85	-0.009361702
17.86667	-0.009361702
17.88333	-0.009361702
17.9	-0.009361702
17.91667	-0.009361702
17.93333	-0.009361702
17.95	-0.009361702
17.96667	-0.009361702
17.98333	-0.009361702
18	-0.009361702
18.01667	-0.009361702
18.03333	-0.009361702
18.05	-0.009361702
18.06667	-0.009361702
18.08333	-0.009361702
18.1	-0.009361702
18.11667	-0.009361702
18.13333	-0.009361702
18.15	-0.009361702
18.16667	-0.009361702
18.18333	-0.01404255
18.2	-0.01404255
18.21667	-0.009361702
18.23333	-0.009361702
18.25	-0.009361702
18.26667	-0.009361702
18.28333	-0.009361702
18.3	-0.01404255
18.31667	-0.01404255
18.33333	-0.009361702
18.35	-0.009361702
18.36667	-0.009361702
18.38333	-0.01404255
18.4	-0.01404255
18.41667	-0.01404255
18.43333	-0.01404255
18.45	-0.01404255
18.46667	-0.01404255
18.48333	-0.01404255
18.5	-0.01404255
18.51667	-0.01404255
18.53333	-0.01404255
18.55	-0.01404255
18.56667	-0.01404255
18.58333	-0.01404255
18.6	-0.01404255
18.61667	-0.01404255
18.63333	-0.01404255
18.65	-0.01404255
18.66667	-0.01404255
18.68333	-0.01404255
18.7	-0.01404255
18.71667	-0.01404255
18.73333	-0.01404255
18.75	-0.01404255
18.76667	-0.01404255
18.78333	-0.01404255
18.8	-0.01404255
18.81667	-0.01404255
18.83333	-0.01404255
18.85	-0.01404255
18.86667	-0.01404255
18.88333	-0.01404255
18.9	-0.01404255
18.91667	-0.01404255
18.93333	-0.01404255
18.95	-0.01404255
18.96667	-0.01404255
18.98333	-0.01404255
19	-0.01404255
19.01667	-0.01404255
19.03333	-0.01404255
19.05	-0.01404255
19.06667	-0.01404255
19.08333	-0.01404255
19.1	-0.01404255
19.11667	-0.01404255
19.13333	-0.01404255
19.15	-0.01404255
19.16667	-0.01404255
19.18333	-0.01404255
19.2	-0.01404255
19.21667	-0.01404255
19.23333	-0.01404255
19.25	-0.01404255
19.26667	-0.01404255
19.28333	-0.01404255
19.3	-0.01404255
19.31667	-0.01404255
19.33333	-0.01404255
19.35	-0.01404255
19.36667	-0.01404255
19.38333	-0.01404255
19.4	-0.01404255
19.41667	-0.01404255
19.43333	-0.01404255
19.45	-0.01404255
19.46667	-0.01404255
19.48333	-0.01404255
19.5	-0.01404255
19.51667	-0.01404255
19.53333	-0.01404255
19.55	-0.01404255
19.56667	-0.01404255
19.58333	-0.01404255
19.6	-0.01404255
19.61667	-0.01404255
19.63333	-0.01404255
19.65	-0.01404255
19.66667	-0.01404255
19.68333	-0.01404255
19.7	-0.01404255
19.71667	-0.01404255
19.73333	-0.01404255
19.75	-0.01404255
19.76667	-0.01404255
19.78333	-0.01404255
19.8	-0.01404255
19.81667	-0.01404255
19.83333	-0.01404255
19.85	-0.01404255
19.86667	-0.01404255
19.88333	-0.01404255
19.9	-0.01404255
19.91667	-0.01404255
19.93333	-0.01404255
19.95	-0.01404255
19.96667	-0.01404255
19.98333	-0.01404255
20	-0.01404255
