"Sample Set Id"	1752
"Sample Set Name"	"sad100124HPA"
"System Name"	"System III"
"Instrument Method Name"	"System 3_RI"
"SampleName"	"PMMAall"
"Injection"	1
"Vial"	"21"
"Channel"	"410 "
0.01666667	0.004680851
0.03333333	0
0.05	0
0.06666667	0
0.08333333	0
0.1	0
0.1166667	0
0.1333333	0
0.15	0
0.1666667	0
0.1833333	0
0.2	0
0.2166667	0
0.2333333	0
0.25	0.004680851
0.2666667	0.004680851
0.2833333	0.004680851
0.3	0.004680851
0.3166667	0.004680851
0.3333333	0.004680851
0.35	0.004680851
0.3666667	0.004680851
0.3833333	0.004680851
0.4	0.004680851
0.4166667	0.009361702
0.4333333	0.009361702
0.45	0.009361702
0.4666667	0.009361702
0.4833333	0.009361702
0.5	0.009361702
0.5166667	0.009361702
0.5333333	0.009361702
0.55	0.01404255
0.5666667	0.01404255
0.5833333	0.01404255
0.6	0.01404255
0.6166667	0.01404255
0.6333333	0.01404255
0.65	0.01404255
0.6666667	0.01404255
0.6833333	0.01404255
0.7	0.01404255
0.7166667	0.01404255
0.7333333	0.01404255
0.75	0.01404255
0.7666667	0.01404255
0.7833333	0.01404255
0.8	0.01404255
0.8166667	0.01404255
0.8333333	0.01404255
0.85	0.01404255
0.8666667	0.01404255
0.8833333	0.01404255
0.9	0.01404255
0.9166667	0.0187234
0.9333333	0.0187234
0.95	0.0187234
0.9666667	0.0187234
0.9833333	0.0187234
1	0.0187234
1.016667	0.0187234
1.033333	0.0187234
1.05	0.0187234
1.066667	0.0187234
1.083333	0.0187234
1.1	0.0187234
1.116667	0.0187234
1.133333	0.0187234
1.15	0.0187234
1.166667	0.0187234
1.183333	0.01404255
1.2	0.01404255
1.216667	0.0187234
1.233333	0.0187234
1.25	0.0187234
1.266667	0.0187234
1.283333	0.0187234
1.3	0.0187234
1.316667	0.0187234
1.333333	0.0187234
1.35	0.0187234
1.366667	0.0187234
1.383333	0.01404255
1.4	0.01404255
1.416667	0.01404255
1.433333	0.01404255
1.45	0.0187234
1.466667	0.01404255
1.483333	0.01404255
1.5	0.01404255
1.516667	0.01404255
1.533333	0.01404255
1.55	0.01404255
1.566667	0.0187234
1.583333	0.01404255
1.6	0.01404255
1.616667	0.01404255
1.633333	0.01404255
1.65	0.01404255
1.666667	0.01404255
1.683333	0.01404255
1.7	0.01404255
1.716667	0.01404255
1.733333	0.01404255
1.75	0.01404255
1.766667	0.01404255
1.783333	0.01404255
1.8	0.01404255
1.816667	0.01404255
1.833333	0.01404255
1.85	0.01404255
1.866667	0.01404255
1.883333	0.01404255
1.9	0.01404255
1.916667	0.01404255
1.933333	0.01404255
1.95	0.01404255
1.966667	0.01404255
1.983333	0.01404255
2	0.01404255
2.016667	0.01404255
2.033333	0.01404255
2.05	0.01404255
2.066667	0.01404255
2.083333	0.01404255
2.1	0.01404255
2.116667	0.01404255
2.133333	0.01404255
2.15	0.01404255
2.166667	0.01404255
2.183333	0.01404255
2.2	0.01404255
2.216667	0.01404255
2.233333	0.01404255
2.25	0.01404255
2.266667	0.01404255
2.283333	0.01404255
2.3	0.01404255
2.316667	0.01404255
2.333333	0.01404255
2.35	0.01404255
2.366667	0.01404255
2.383333	0.009361702
2.4	0.009361702
2.416667	0.009361702
2.433333	0.009361702
2.45	0.009361702
2.466667	0.009361702
2.483333	0.009361702
2.5	0.009361702
2.516667	0.009361702
2.533333	0.009361702
2.55	0.01404255
2.566667	0.009361702
2.583333	0.009361702
2.6	0.009361702
2.616667	0.009361702
2.633333	0.009361702
2.65	0.009361702
2.666667	0.009361702
2.683333	0.009361702
2.7	0.009361702
2.716667	0.009361702
2.733333	0.009361702
2.75	0.009361702
2.766667	0.009361702
2.783333	0.009361702
2.8	0.009361702
2.816667	0.009361702
2.833333	0.009361702
2.85	0.009361702
2.866667	0.009361702
2.883333	0.009361702
2.9	0.009361702
2.916667	0.009361702
2.933333	0.009361702
2.95	0.009361702
2.966667	0.009361702
2.983333	0.009361702
3	0.009361702
3.016667	0.009361702
3.033333	0.009361702
3.05	0.009361702
3.066667	0.009361702
3.083333	0.009361702
3.1	0.009361702
3.116667	0.009361702
3.133333	0.009361702
3.15	0.009361702
3.166667	0.009361702
3.183333	0.009361702
3.2	0.009361702
3.216667	0.009361702
3.233333	0.009361702
3.25	0.009361702
3.266667	0.009361702
3.283333	0.009361702
3.3	0.009361702
3.316667	0.009361702
3.333333	0.009361702
3.35	0.009361702
3.366667	0.009361702
3.383333	0.009361702
3.4	0.009361702
3.416667	0.009361702
3.433333	0.009361702
3.45	0.009361702
3.466667	0.009361702
3.483333	0.009361702
3.5	0.009361702
3.516667	0.009361702
3.533333	0.009361702
3.55	0.009361702
3.566667	0.009361702
3.583333	0.009361702
3.6	0.009361702
3.616667	0.009361702
3.633333	0.009361702
3.65	0.009361702
3.666667	0.009361702
3.683333	0.009361702
3.7	0.009361702
3.716667	0.009361702
3.733333	0.009361702
3.75	0.009361702
3.766667	0.009361702
3.783333	0.009361702
3.8	0.009361702
3.816667	0.009361702
3.833333	0.009361702
3.85	0.009361702
3.866667	0.009361702
3.883333	0.009361702
3.9	0.009361702
3.916667	0.009361702
3.933333	0.009361702
3.95	0.009361702
3.966667	0.009361702
3.983333	0.009361702
4	0.009361702
4.016667	0.009361702
4.033333	0.009361702
4.05	0.009361702
4.066667	0.009361702
4.083333	0.009361702
4.1	0.009361702
4.116667	0.009361702
4.133333	0.01404255
4.15	0.01404255
4.166667	0.01404255
4.183333	0.01404255
4.2	0.01404255
4.216667	0.01404255
4.233333	0.01404255
4.25	0.01404255
4.266667	0.01404255
4.283333	0.01404255
4.3	0.01404255
4.316667	0.01404255
4.333333	0.01404255
4.35	0.01404255
4.366667	0.01404255
4.383333	0.01404255
4.4	0.01404255
4.416667	0.01404255
4.433333	0.01404255
4.45	0.01404255
4.466667	0.01404255
4.483333	0.01404255
4.5	0.01404255
4.516667	0.01404255
4.533333	0.01404255
4.55	0.01404255
4.566667	0.01404255
4.583333	0.01404255
4.6	0.01404255
4.616667	0.01404255
4.633333	0.01404255
4.65	0.01404255
4.666667	0.0187234
4.683333	0.01404255
4.7	0.01404255
4.716667	0.01404255
4.733333	0.0187234
4.75	0.0187234
4.766667	0.0187234
4.783333	0.01404255
4.8	0.01404255
4.816667	0.01404255
4.833333	0.0187234
4.85	0.0187234
4.866667	0.0187234
4.883333	0.0187234
4.9	0.0187234
4.916667	0.0187234
4.933333	0.0187234
4.95	0.0187234
4.966667	0.0187234
4.983333	0.0187234
5	0.0187234
5.016667	0.0187234
5.033333	0.0187234
5.05	0.0187234
5.066667	0.0187234
5.083333	0.0187234
5.1	0.0187234
5.116667	0.0187234
5.133333	0.0187234
5.15	0.0187234
5.166667	0.0187234
5.183333	0.0187234
5.2	0.0187234
5.216667	0.0187234
5.233333	0.0187234
5.25	0.0187234
5.266667	0.0187234
5.283333	0.0187234
5.3	0.0187234
5.316667	0.0187234
5.333333	0.0187234
5.35	0.0187234
5.366667	0.0187234
5.383333	0.0187234
5.4	0.0187234
5.416667	0.0187234
5.433333	0.0187234
5.45	0.0187234
5.466667	0.0187234
5.483333	0.0187234
5.5	0.0187234
5.516667	0.0187234
5.533333	0.0187234
5.55	0.0187234
5.566667	0.0187234
5.583333	0.0187234
5.6	0.0187234
5.616667	0.0187234
5.633333	0.0187234
5.65	0.0187234
5.666667	0.0187234
5.683333	0.0187234
5.7	0.0187234
5.716667	0.0187234
5.733333	0.0187234
5.75	0.0187234
5.766667	0.02340426
5.783333	0.0187234
5.8	0.0187234
5.816667	0.0187234
5.833333	0.02340426
5.85	0.02340426
5.866667	0.02808511
5.883333	0.03276596
5.9	0.03744681
5.916667	0.04680851
5.933333	0.06085106
5.95	0.07957447
5.966667	0.09829787
5.983333	0.1217021
6	0.1497872
6.016667	0.1825532
6.033333	0.22
6.05	0.2574468
6.066667	0.2995745
6.083333	0.3370213
6.1	0.3791489
6.116667	0.4165957
6.133333	0.4540425
6.15	0.4821277
6.166667	0.5102128
6.183333	0.5289362
6.2	0.5429787
6.216667	0.5570213
6.233333	0.566383
6.25	0.5710638
6.266667	0.5757447
6.283333	0.5804255
6.3	0.5851064
6.316667	0.5897872
6.333333	0.6038298
6.35	0.6178723
6.366667	0.6319149
6.383333	0.6506383
6.4	0.6693617
6.416667	0.6927659
6.433333	0.7114894
6.45	0.7302128
6.466667	0.7489362
6.483333	0.7582979
6.5	0.7676596
6.516667	0.7723404
6.533333	0.7723404
6.55	0.7629787
6.566667	0.753617
6.583333	0.7395745
6.6	0.7208511
6.616667	0.6974468
6.633333	0.6787234
6.65	0.6553191
6.666667	0.6319149
6.683333	0.6085106
6.7	0.5851064
6.716667	0.5617021
6.733333	0.5429787
6.75	0.5289362
6.766667	0.5148936
6.783333	0.5008511
6.8	0.4914894
6.816667	0.4868085
6.833333	0.4868085
6.85	0.4914894
6.866667	0.4914894
6.883333	0.5008511
6.9	0.5055319
6.916667	0.5148936
6.933333	0.5242553
6.95	0.533617
6.966667	0.5382979
6.983333	0.5429787
7	0.5476596
7.016667	0.5523404
7.033333	0.5523404
7.05	0.5523404
7.066667	0.5476596
7.083333	0.5382979
7.1	0.533617
7.116667	0.5242553
7.133333	0.5148936
7.15	0.5102128
7.166667	0.5008511
7.183333	0.4914894
7.2	0.4821277
7.216667	0.4774468
7.233333	0.472766
7.25	0.472766
7.266667	0.472766
7.283333	0.472766
7.3	0.4774468
7.316667	0.4821277
7.333333	0.4868085
7.35	0.4961702
7.366667	0.5008511
7.383333	0.5102128
7.4	0.5148936
7.416667	0.5242553
7.433333	0.533617
7.45	0.5382979
7.466667	0.5429787
7.483333	0.5523404
7.5	0.5570213
7.516667	0.5570213
7.533333	0.5617021
7.55	0.566383
7.566667	0.5710638
7.583333	0.5710638
7.6	0.5710638
7.616667	0.5710638
7.633333	0.5757447
7.65	0.5757447
7.666667	0.5804255
7.683333	0.5804255
7.7	0.5851064
7.716667	0.5851064
7.733333	0.5897872
7.75	0.5897872
7.766667	0.5944681
7.783333	0.5944681
7.8	0.5944681
7.816667	0.5991489
7.833333	0.6038298
7.85	0.6085106
7.866667	0.6131915
7.883333	0.6178723
7.9	0.627234
7.916667	0.6365957
7.933333	0.6506383
7.95	0.6646808
7.966667	0.6834042
7.983333	0.7021277
8	0.7255319
8.016667	0.7489362
8.033333	0.7723404
8.05	0.7910638
8.066667	0.8097872
8.083333	0.8285106
8.1	0.8425532
8.116667	0.8565957
8.133333	0.8659574
8.15	0.8706383
8.166667	0.8706383
8.183333	0.8659574
8.2	0.8612766
8.216667	0.8565957
8.233333	0.847234
8.25	0.8378723
8.266667	0.8285106
8.283333	0.8191489
8.3	0.8097872
8.316667	0.8004255
8.333333	0.7957447
8.35	0.7910638
8.366667	0.786383
8.383333	0.786383
8.4	0.7817021
8.416667	0.7817021
8.433333	0.7817021
8.45	0.7817021
8.466667	0.7817021
8.483333	0.7817021
8.5	0.7770213
8.516667	0.7723404
8.533333	0.7676596
8.55	0.7582979
8.566667	0.7489362
8.583333	0.7395745
8.6	0.7255319
8.616667	0.7114894
8.633333	0.6927659
8.65	0.6787234
8.666667	0.66
8.683333	0.6459574
8.7	0.627234
8.716667	0.6085106
8.733333	0.5944681
8.75	0.5804255
8.766667	0.5710638
8.783333	0.5570213
8.8	0.5476596
8.816667	0.5429787
8.833333	0.5382979
8.85	0.5382979
8.866667	0.5382979
8.883333	0.5382979
8.9	0.5429787
8.916667	0.5476596
8.933333	0.5523404
8.95	0.5617021
8.966667	0.566383
8.983333	0.5757447
9	0.5851064
9.016667	0.5944681
9.033333	0.6038298
9.05	0.6131915
9.066667	0.6178723
9.083333	0.627234
9.1	0.6319149
9.116667	0.6365957
9.133333	0.6412766
9.15	0.6459574
9.166667	0.6506383
9.183333	0.6506383
9.2	0.6459574
9.216667	0.6459574
9.233333	0.6412766
9.25	0.6365957
9.266667	0.6319149
9.283333	0.6225532
9.3	0.6131915
9.316667	0.5991489
9.333333	0.5897872
9.35	0.5757447
9.366667	0.5617021
9.383333	0.5429787
9.4	0.5289362
9.416667	0.5102128
9.433333	0.4961702
9.45	0.4774468
9.466667	0.4634042
9.483333	0.4493617
9.5	0.4353191
9.516667	0.4165957
9.533333	0.407234
9.55	0.3931915
9.566667	0.3744681
9.583333	0.3604255
9.6	0.3370213
9.616667	0.313617
9.633333	0.2761702
9.65	0.2246808
9.666667	0.1544681
9.683333	0.05617021
9.7	-0.07489362
9.716667	-0.2480851
9.733333	-0.4540425
9.75	-0.6927659
9.766667	-0.9642553
9.783333	-1.254468
9.8	-1.549362
9.816667	-1.844255
9.833333	-2.125106
9.85	-2.387234
9.866667	-2.625957
9.883333	-2.841277
9.9	-3.037872
9.916667	-3.220425
9.933333	-3.40766
9.95	-3.599574
9.966667	-3.814894
9.983333	-4.044255
10	-4.297021
10.01667	-4.549787
10.03333	-4.797872
10.05	-5.013191
10.06667	-5.186383
10.08333	-5.298723
10.1	-5.340851
10.11667	-5.312766
10.13333	-5.219149
10.15	-5.064681
10.16667	-4.863404
10.18333	-4.634042
10.2	-4.385957
10.21667	-4.12383
10.23333	-3.866383
10.25	-3.608936
10.26667	-3.365532
10.28333	-3.13617
10.3	-2.925532
10.31667	-2.728936
10.33333	-2.551064
10.35	-2.391915
10.36667	-2.246808
10.38333	-2.120426
10.4	-2.003404
10.41667	-1.900426
10.43333	-1.802128
10.45	-1.717872
10.46667	-1.638298
10.48333	-1.563404
10.5	-1.488511
10.51667	-1.418298
10.53333	-1.348085
10.55	-1.273191
10.56667	-1.202979
10.58333	-1.128085
10.6	-1.053191
10.61667	-0.9782979
10.63333	-0.8987234
10.65	-0.8191489
10.66667	-0.7395745
10.68333	-0.66
10.7	-0.5897872
10.71667	-0.5195745
10.73333	-0.4540425
10.75	-0.3931915
10.76667	-0.3370213
10.78333	-0.2902128
10.8	-0.2480851
10.81667	-0.2106383
10.83333	-0.1825532
10.85	-0.1591489
10.86667	-0.1404255
10.88333	-0.126383
10.9	-0.1170213
10.91667	-0.1076596
10.93333	-0.1029787
10.95	-0.1029787
10.96667	-0.1076596
10.98333	-0.1123404
11	-0.1170213
11.01667	-0.1217021
11.03333	-0.126383
11.05	-0.1357447
11.06667	-0.1404255
11.08333	-0.1497872
11.1	-0.1591489
11.11667	-0.1638298
11.13333	-0.1731915
11.15	-0.1778723
11.16667	-0.187234
11.18333	-0.1919149
11.2	-0.1965957
11.21667	-0.2012766
11.23333	-0.2012766
11.25	-0.2012766
11.26667	-0.2012766
11.28333	-0.2012766
11.3	-0.1965957
11.31667	-0.1919149
11.33333	-0.187234
11.35	-0.1825532
11.36667	-0.1731915
11.38333	-0.1685106
11.4	-0.1638298
11.41667	-0.1591489
11.43333	-0.1544681
11.45	-0.1497872
11.46667	-0.1451064
11.48333	-0.1451064
11.5	-0.1451064
11.51667	-0.1497872
11.53333	-0.1497872
11.55	-0.1591489
11.56667	-0.1638298
11.58333	-0.1778723
11.6	-0.1965957
11.61667	-0.22
11.63333	-0.252766
11.65	-0.2902128
11.66667	-0.3417021
11.68333	-0.3978723
11.7	-0.4680851
11.71667	-0.5429787
11.73333	-0.6225532
11.75	-0.7068085
11.76667	-0.7957447
11.78333	-0.8846808
11.8	-0.9642553
11.81667	-1.034468
11.83333	-1.095319
11.85	-1.151489
11.86667	-1.188936
11.88333	-1.21234
11.9	-1.226383
11.91667	-1.226383
11.93333	-1.217021
11.95	-1.198298
11.96667	-1.174894
11.98333	-1.146808
12	-1.114043
12.01667	-1.081277
12.03333	-1.04383
12.05	-1.011064
12.06667	-0.973617
12.08333	-0.9455319
12.1	-0.9174468
12.11667	-0.8940425
12.13333	-0.8753191
12.15	-0.8612766
12.16667	-0.8519149
12.18333	-0.847234
12.2	-0.847234
12.21667	-0.8519149
12.23333	-0.8612766
12.25	-0.8706383
12.26667	-0.88
12.28333	-0.8893617
12.3	-0.8987234
12.31667	-0.9080851
12.33333	-0.9080851
12.35	-0.9080851
12.36667	-0.9080851
12.38333	-0.9034042
12.4	-0.8893617
12.41667	-0.8753191
12.43333	-0.8565957
12.45	-0.8331915
12.46667	-0.8097872
12.48333	-0.7817021
12.5	-0.753617
12.51667	-0.7255319
12.53333	-0.6927659
12.55	-0.66
12.56667	-0.6319149
12.58333	-0.6038298
12.6	-0.5710638
12.61667	-0.5429787
12.63333	-0.5148936
12.65	-0.4868085
12.66667	-0.4587234
12.68333	-0.4353191
12.7	-0.4119149
12.71667	-0.3885106
12.73333	-0.3697872
12.75	-0.346383
12.76667	-0.3276596
12.78333	-0.313617
12.8	-0.2948936
12.81667	-0.2808511
12.83333	-0.2668085
12.85	-0.252766
12.86667	-0.2387234
12.88333	-0.2293617
12.9	-0.22
12.91667	-0.2106383
12.93333	-0.2012766
12.95	-0.1919149
12.96667	-0.1825532
12.98333	-0.1778723
13	-0.1685106
13.01667	-0.1638298
13.03333	-0.1544681
13.05	-0.1497872
13.06667	-0.1451064
13.08333	-0.1404255
13.1	-0.1357447
13.11667	-0.126383
13.13333	-0.1217021
13.15	-0.1170213
13.16667	-0.1123404
13.18333	-0.1123404
13.2	-0.1076596
13.21667	-0.1029787
13.23333	-0.09829787
13.25	-0.09829787
13.26667	-0.09361702
13.28333	-0.08893617
13.3	-0.08893617
13.31667	-0.08425532
13.33333	-0.07957447
13.35	-0.07957447
13.36667	-0.07489362
13.38333	-0.07489362
13.4	-0.07489362
13.41667	-0.07021277
13.43333	-0.07021277
13.45	-0.06553191
13.46667	-0.06553191
13.48333	-0.06553191
13.5	-0.06085106
13.51667	-0.06085106
13.53333	-0.06085106
13.55	-0.05617021
13.56667	-0.05617021
13.58333	-0.05617021
13.6	-0.05617021
13.61667	-0.05617021
13.63333	-0.05148936
13.65	-0.05148936
13.66667	-0.05148936
13.68333	-0.05148936
13.7	-0.05148936
13.71667	-0.05148936
13.73333	-0.04680851
13.75	-0.04680851
13.76667	-0.04680851
13.78333	-0.04680851
13.8	-0.04680851
13.81667	-0.04680851
13.83333	-0.04680851
13.85	-0.04680851
13.86667	-0.04680851
13.88333	-0.04680851
13.9	-0.04680851
13.91667	-0.04680851
13.93333	-0.04680851
13.95	-0.04680851
13.96667	-0.04680851
13.98333	-0.04680851
14	-0.04680851
14.01667	-0.04680851
14.03333	-0.04680851
14.05	-0.04680851
14.06667	-0.04680851
14.08333	-0.05148936
14.1	-0.05148936
14.11667	-0.05148936
14.13333	-0.05148936
14.15	-0.05148936
14.16667	-0.05148936
14.18333	-0.05148936
14.2	-0.05148936
14.21667	-0.05148936
14.23333	-0.05148936
14.25	-0.05148936
14.26667	-0.05148936
14.28333	-0.05148936
14.3	-0.05148936
14.31667	-0.05148936
14.33333	-0.05148936
14.35	-0.05148936
14.36667	-0.05148936
14.38333	-0.05148936
14.4	-0.05148936
14.41667	-0.05148936
14.43333	-0.05148936
14.45	-0.05148936
14.46667	-0.05148936
14.48333	-0.05148936
14.5	-0.04680851
14.51667	-0.04680851
14.53333	-0.04680851
14.55	-0.04680851
14.56667	-0.04680851
14.58333	-0.04680851
14.6	-0.04680851
14.61667	-0.04680851
14.63333	-0.04680851
14.65	-0.04212766
14.66667	-0.04212766
14.68333	-0.04212766
14.7	-0.04212766
14.71667	-0.03744681
14.73333	-0.03744681
14.75	-0.03744681
14.76667	-0.03744681
14.78333	-0.03744681
14.8	-0.03744681
14.81667	-0.03276596
14.83333	-0.03276596
14.85	-0.03276596
14.86667	-0.02808511
14.88333	-0.02808511
14.9	-0.02808511
14.91667	-0.02808511
14.93333	-0.02808511
14.95	-0.02808511
14.96667	-0.02340426
14.98333	-0.02340426
15	-0.02340426
15.01667	-0.02340426
15.03333	-0.02340426
15.05	-0.02340426
15.06667	-0.0187234
15.08333	-0.0187234
15.1	-0.0187234
15.11667	-0.0187234
15.13333	-0.01404255
15.15	-0.01404255
15.16667	-0.01404255
15.18333	-0.01404255
15.2	-0.01404255
15.21667	-0.01404255
15.23333	-0.009361702
15.25	-0.009361702
15.26667	-0.009361702
15.28333	-0.009361702
15.3	-0.009361702
15.31667	-0.009361702
15.33333	-0.004680851
15.35	-0.004680851
15.36667	-0.004680851
15.38333	-0.004680851
15.4	-0.004680851
15.41667	-0.004680851
15.43333	0
15.45	0
15.46667	0
15.48333	0
15.5	0
15.51667	0
15.53333	0.004680851
15.55	0.004680851
15.56667	0.004680851
15.58333	0.004680851
15.6	0.004680851
15.61667	0.004680851
15.63333	0.004680851
15.65	0.004680851
15.66667	0.009361702
15.68333	0.009361702
15.7	0.009361702
15.71667	0.009361702
15.73333	0.009361702
15.75	0.009361702
15.76667	0.01404255
15.78333	0.01404255
15.8	0.01404255
15.81667	0.01404255
15.83333	0.01404255
15.85	0.01404255
15.86667	0.01404255
15.88333	0.01404255
15.9	0.01404255
15.91667	0.01404255
15.93333	0.01404255
15.95	0.0187234
15.96667	0.0187234
15.98333	0.0187234
16	0.0187234
16.01667	0.0187234
16.03333	0.0187234
16.05	0.0187234
16.06667	0.0187234
16.08333	0.0187234
16.1	0.0187234
16.11667	0.0187234
16.13333	0.0187234
16.15	0.02340426
16.16667	0.02340426
16.18333	0.0187234
16.2	0.0187234
16.21667	0.02340426
16.23333	0.02340426
16.25	0.02340426
16.26667	0.02340426
16.28333	0.02340426
16.3	0.02340426
16.31667	0.02340426
16.33333	0.02340426
16.35	0.02340426
16.36667	0.02340426
16.38333	0.02340426
16.4	0.02340426
16.41667	0.02340426
16.43333	0.02340426
16.45	0.02340426
16.46667	0.02340426
16.48333	0.02340426
16.5	0.02340426
16.51667	0.02340426
16.53333	0.02340426
16.55	0.02340426
16.56667	0.02808511
16.58333	0.02340426
16.6	0.02340426
16.61667	0.02340426
16.63333	0.02340426
16.65	0.02340426
16.66667	0.02808511
16.68333	0.02340426
16.7	0.02340426
16.71667	0.02340426
16.73333	0.02340426
16.75	0.02808511
16.76667	0.02808511
16.78333	0.02340426
16.8	0.02340426
16.81667	0.02340426
16.83333	0.02340426
16.85	0.02808511
16.86667	0.02808511
16.88333	0.02340426
16.9	0.02340426
16.91667	0.02808511
16.93333	0.02808511
16.95	0.02808511
16.96667	0.02808511
16.98333	0.02340426
17	0.02340426
17.01667	0.02340426
17.03333	0.02340426
17.05	0.02340426
17.06667	0.02340426
17.08333	0.02340426
17.1	0.02340426
17.11667	0.02340426
17.13333	0.02340426
17.15	0.02340426
17.16667	0.02340426
17.18333	0.02340426
17.2	0.02340426
17.21667	0.02340426
17.23333	0.02340426
17.25	0.02340426
17.26667	0.02340426
17.28333	0.02340426
17.3	0.02340426
17.31667	0.02340426
17.33333	0.02340426
17.35	0.02340426
17.36667	0.02340426
17.38333	0.02340426
17.4	0.02340426
17.41667	0.02340426
17.43333	0.02340426
17.45	0.02340426
17.46667	0.02340426
17.48333	0.02340426
17.5	0.02340426
17.51667	0.02340426
17.53333	0.02340426
17.55	0.02808511
17.56667	0.02808511
17.58333	0.02340426
17.6	0.02340426
17.61667	0.02340426
17.63333	0.02340426
17.65	0.02808511
17.66667	0.02808511
17.68333	0.02808511
17.7	0.02340426
17.71667	0.02808511
17.73333	0.02808511
17.75	0.02808511
17.76667	0.02808511
17.78333	0.02340426
17.8	0.02340426
17.81667	0.02340426
17.83333	0.02340426
17.85	0.02808511
17.86667	0.02808511
17.88333	0.02808511
17.9	0.02808511
17.91667	0.02808511
17.93333	0.02808511
17.95	0.02808511
17.96667	0.02808511
17.98333	0.02808511
18	0.02340426
18.01667	0.02808511
18.03333	0.02808511
18.05	0.02808511
18.06667	0.02808511
18.08333	0.02808511
18.1	0.02808511
18.11667	0.02808511
18.13333	0.02808511
18.15	0.02808511
18.16667	0.02808511
18.18333	0.02808511
18.2	0.02808511
18.21667	0.02808511
18.23333	0.02808511
18.25	0.02808511
18.26667	0.02808511
18.28333	0.02808511
18.3	0.02808511
18.31667	0.02808511
18.33333	0.02808511
18.35	0.02808511
18.36667	0.02808511
18.38333	0.02808511
18.4	0.02808511
18.41667	0.02808511
18.43333	0.02808511
18.45	0.02808511
18.46667	0.02808511
18.48333	0.02808511
18.5	0.02808511
18.51667	0.02808511
18.53333	0.02808511
18.55	0.02808511
18.56667	0.02808511
18.58333	0.02808511
18.6	0.02808511
18.61667	0.02808511
18.63333	0.02808511
18.65	0.02808511
18.66667	0.02808511
18.68333	0.02808511
18.7	0.02808511
18.71667	0.02808511
18.73333	0.02808511
18.75	0.02808511
18.76667	0.02808511
18.78333	0.02808511
18.8	0.02808511
18.81667	0.02808511
18.83333	0.02808511
18.85	0.02808511
18.86667	0.02808511
18.88333	0.02808511
18.9	0.02808511
18.91667	0.02808511
18.93333	0.02808511
18.95	0.02808511
18.96667	0.02808511
18.98333	0.02808511
19	0.02808511
19.01667	0.02808511
19.03333	0.02808511
19.05	0.02808511
19.06667	0.02808511
19.08333	0.02808511
19.1	0.02808511
19.11667	0.02808511
19.13333	0.02808511
19.15	0.02808511
19.16667	0.02808511
19.18333	0.02808511
19.2	0.02808511
19.21667	0.02808511
19.23333	0.02808511
19.25	0.02808511
19.26667	0.02808511
19.28333	0.02808511
19.3	0.02808511
19.31667	0.02808511
19.33333	0.02808511
19.35	0.02808511
19.36667	0.02808511
19.38333	0.02808511
19.4	0.02808511
19.41667	0.02808511
19.43333	0.02808511
19.45	0.02808511
19.46667	0.02808511
19.48333	0.02808511
19.5	0.02808511
19.51667	0.02808511
19.53333	0.02808511
19.55	0.02808511
19.56667	0.02808511
19.58333	0.02808511
19.6	0.02808511
19.61667	0.02808511
19.63333	0.02808511
19.65	0.02808511
19.66667	0.02808511
19.68333	0.02808511
19.7	0.02808511
19.71667	0.02808511
19.73333	0.02808511
19.75	0.02808511
19.76667	0.02808511
19.78333	0.02340426
19.8	0.02340426
19.81667	0.02340426
19.83333	0.02340426
19.85	0.02808511
19.86667	0.02808511
19.88333	0.02340426
19.9	0.02340426
19.91667	0.02340426
19.93333	0.02808511
19.95	0.02808511
19.96667	0.02808511
19.98333	0.02340426
20	0.02340426
